t   Re(c(t))    Im(c(t))
0.0  0.9999999999999999  0.0
0.001  0.9995663822959581  0.02890175719777402
0.002  0.9982659605216775  0.05777659410780013
0.003  0.9961000282080094  0.08659761890298111
0.004  0.9930707396313582  0.11533799664393135
0.005  0.9891811074032586  0.14397097763890296
0.006  0.9844349990999679  0.17246992570311712
0.007  0.9788371329362585  0.20080834628417488
0.008  0.9723930724887788  0.22895991442039204
0.009000000000000001  0.9651092204755172  0.25689850249912377
0.01  0.956992811599093  0.2845982077824008
0.011  0.9480519044627388  0.3120333796675052
0.012  0.938295372568986  0.33917864665045505
0.013000000000000001  0.927732894412216  0.3660089429607556
0.014  0.9163749426773293  0.392499534836199
0.015  0.90423277255791  0.4186260464069649
0.016  0.8913184092083283  0.444364485158777
0.017  0.8776446343453022  0.46969126694542096
0.018000000000000002  0.863224972015463  0.4945832405215086
0.019  0.8480736735465086  0.519017711566999
0.02  0.8322057017005062  0.5429724661756408
0.021  0.8156367140488939  0.5664257937801958
0.022  0.7983830455896566  0.5893565094880323
0.023  0.7804616906280853  0.6117439758014368
0.024  0.7618902839434054  0.6335681236977839
0.025  0.7426870812644197  0.6548094730455389
0.026000000000000002  0.7228709390781398  0.67544915233291
0.027  0.7024612937961753  0.695468917686862
0.028  0.6814781403044031  0.7148511711611112
0.029  0.6599420099221766  0.7335789782726609
0.03  0.637873947798015  0.7516360847673973
0.031  0.615295489769377  0.7690069325962603
0.032  0.5922286387147352  0.7856766750845067
0.033  0.5686958404267508  0.8016311912776195
0.034  0.5447199590358885  0.8168570994484625
0.035  0.5203242520143173  0.8313417697513545
0.036000000000000004  0.4955323447904005  0.8450733360098157
0.037  0.4703682050045072  0.8580407066258458
0.038  0.4448561164372559  0.8702335745997039
0.039  0.4190206526416401  0.8816424266502854
0.04  0.39288665031079134  0.8922585514273298
0.041  0.36647918241338245  0.9020740468078415
0.042  0.3398235311289003  0.9110818262702498
0.043000000000000003  0.3129451606151791  0.919275624341003
0.044  0.2858696896407233  0.926650001109448
0.045  0.25862286411443236  0.9332003458080127
0.046  0.23123052954538706  0.9389228794558806
0.047  0.2037186034653564  0.9438146565655012
0.048  0.17611304784664775  0.9478735659124577
0.049  0.14843984154783746  0.9510983303703612
0.05  0.120724952819796  0.9534885058136029
0.051000000000000004  0.09299431190425535  0.9550444790919382
0.052000000000000005  0.06527378375695819  0.9557674650820209
0.053  0.03758914092718081  0.9556595028221289
0.054  0.009966036625129761  0.9547234507374495
0.055  -0.017570021991613144  0.9529629809643843
0.056  -0.04499370028179606  0.9503825727834395
0.057  -0.07227986230395606  0.9469875051713281
0.058  -0.09940359668968202  0.942783848483979
0.059000000000000004  -0.12634024217721612  0.9377784552831765
0.06  -0.15306541277644747  0.931978950320586
0.061  -0.17955502253690814  0.9253937196939014
0.062  -0.2057853098909734  0.9180318991908436
0.063  -0.23173286154509132  0.9099033618376734
0.064  -0.2573746358925281  0.9010187046698246
0.065  -0.2826879859218016  0.8913892347431451
0.066  -0.3076506815957019  0.8810269544051237
0.067  -0.33224093167654517  0.8699445458463141
0.068  -0.35643740497408755  0.8581553549529796
0.069  -0.38021925099333664  0.8456733744827822
0.07  -0.4035661199603284  0.8325132265860683
0.07100000000000001  -0.4264581822047988  0.8186901446960466
0.07200000000000001  -0.448876146879563  0.8042199548118281
0.073  -0.47080127999732035  0.789119056198953
0.074  -0.4922154217665273  0.7734044015326532
0.075  -0.5131010032089378  0.7570934765096755
0.076  -0.533441062042363  0.740204278955041
0.077  -0.5532192578131923  0.7227552974506304
0.078  -0.5724198862642218  0.7047654895129485
0.079  -0.5910278929243359  0.6862542593478689
0.08  -0.6090288859076256  0.6672414352105462
0.081  -0.62640914791056  0.6477472463990506
0.082  -0.6431556473968746  0.6277922999105955
0.083  -0.6592560489608967  0.6073975567895119
0.084  -0.6746987228610928  0.5865843081963645
0.085  -0.6894727537166883  0.5653741512278078
0.08600000000000001  -0.7035679483612861  0.5437889645169437
0.08700000000000001  -0.7169748428484852  0.521850883644066
0.088  -0.7296847086055723  0.4995822763877611
0.089  -0.7416895577324463  0.4770057178463796
0.09  -0.7529821474439973  0.454143965459898
0.091  -0.7635559836552429  0.43101993396216004
0.092  -0.7734053237095853  0.40765667029340835
0.093  -0.782525178251617  0.38407732850291565
0.094  -0.7909113122469534  0.36030514467136604
0.095  -0.7985602451526133  0.3363634118824578
0.096  -0.8054692502425077  0.3122754552729732
0.097  -0.8116363530936145  0.28806460719029725
0.098  -0.8170603292394262  0.26375418248607513
0.099  -0.8217407009982532  0.2393674539743631
0.1  -0.8256777334849512  0.21492762808225932
0.101  -0.8288724298155885  0.1904578207206022
0.10200000000000001  -0.8313265255155321  0.16598103340188614
0.10300000000000001  -0.833042482142343  0.14152012963207786
0.10400000000000001  -0.8340234801357833  0.11709781160251571
0.105  -0.8342734109081212  0.09273659720754523
0.106  -0.8337968681887761  0.06845879741298089
0.107  -0.8325991386381921  0.04428649399989507
0.108  -0.8306861917466359  0.02024151770761695
0.109  -0.828064669034402  -0.0036545732008225213
0.11  -0.8247418725706741  -0.02738051392823479
0.111  -0.8207257528290248  -0.05091535366593808
0.112  -0.8160248958982378  -0.0742384756283962
0.113  -0.8106485100678169  -0.09732961657942768
0.114  -0.804606411808197  -0.12016888583034735
0.115  -0.7979090111662838  -0.142736783691188
0.116  -0.7905672965975379  -0.1650142193569553
0.117  -0.7825928192563762  -0.18698252821169256
0.11800000000000001  -0.7739976767671822  -0.20862348853397072
0.11900000000000001  -0.7647944964987112  -0.22991933758827618
0.12  -0.7549964183651294  -0.2508527870876383
0.121  -0.7446170771773558  -0.2714070380137216
0.122  -0.733670584568757  -0.2915657947815006
0.123  -0.7221715105196148  -0.31131327873654424
0.124  -0.7101348645050902  -0.3306342409738476
0.125  -0.6975760762917141  -0.34951397446807136
0.126  -0.6845109764076728  -0.3679383255059805
0.127  -0.6709557763123808  -0.38589370441280213
0.128  -0.6569270482910198  -0.40336709556516825
0.129  -0.6424417050998619  -0.4203460666842407
0.13  -0.6275169793883196  -0.436818777403563
0.131  -0.6121704029237374  -0.4527739871071237
0.132  -0.5964197856449853  -0.4682010620340557
0.133  -0.5802831945709296  -0.48308998164733397
0.134  -0.5637789325898266  -0.4974313442647673
0.135  -0.5469255171556334  -0.5112163719515128
0.136  -0.5297416589171358  -0.5244369146742563
0.137  -0.5122462403056702  -0.537085453718126
0.138  -0.4944582941070637  -0.5491551043683064
0.139  -0.4763969820432234  -0.5606396178592202
0.14  -0.4580815733885901  -0.5715333825950303
0.14100000000000001  -0.43953142364641906  -0.5818314246460863
0.14200000000000002  -0.42076595330957095  -0.5915294075268018
0.14300000000000002  -0.4018046267301827  -0.6006236312612985
0.14400000000000002  -0.3826669311222503  -0.6091110307439718
0.145  -0.3633723557207854  -0.6169891734029666
0.146  -0.3439403711208133  -0.6242562561753291
0.147  -0.32439040881905434  -0.6309111018033957
0.148  -0.30474184098068424  -0.6369531544627287
0.149  -0.2850139604530921  -0.6423824747326573
0.15  -0.26522596104805723  -0.6471997339211968
0.151  -0.24539691811324374  -0.6514062077568149
0.152  -0.2255457694133654  -0.6550037694601982
0.153  -0.20569129634080818  -0.6579948822098122
0.154  -0.18585210547491  -0.6603825910156875
0.155  -0.1660466105084899  -0.6621705140164615
0.156  -0.14629301455959157  -0.6633628332152872
0.157  -0.12660929288576708  -0.6639642846707757
0.158  -0.10701317601756077  -0.6639801481596608
0.159  -0.08752213332718153  -0.6634162363283824
0.16  -0.06815335704765989  -0.6622788833512524
0.161  -0.04892374675708202  -0.6605749331133177
0.162  -0.029849894341778007  -0.6583117269364509
0.163  -0.010948069451612316  -0.6554970908675912
0.164  0.007765794540211796  -0.6521393225484191
0.165  0.026276114061169906  -0.6482471776860838
0.166  0.04456766833634601  -0.6438298561449041
0.167  0.06262561184812826  -0.6388969876792429
0.168  0.08043548624928737  -0.6334586173279998
0.169  0.09798323172083363  -0.6275251904913842
0.17  0.11525519776681768  -0.6211075377108228
0.171  0.1322381534390224  -0.614216859173013
0.17200000000000001  0.14891929698527184  -0.6068647089592616
0.17300000000000001  0.1652862649158631  -0.5990629790613586
0.17400000000000002  0.18132714048340726  -0.5908238831853001
0.17500000000000002  0.19703046157214096  -0.5821599403642227
0.176  0.21238522799354864  -0.5730839584019316
0.177  0.22738090818590231  -0.5636090171683871
0.178  0.24200744531609428  -0.5537484517684764
0.179  0.25625526278289856  -0.543515835605337
0.18  0.2701152691215486  -0.5329249633593927
0.181  0.2835788623102654  -0.5219898339041571
0.182  0.29663793348010764  -0.5107246331796967
0.183  0.3092848700302411  -0.49914371704449345
0.184  0.32151255815144314  -0.4872615941262254
0.185  0.3333143847613627  -0.47509290869178705
0.186  0.3446842388557476  -0.46265242355660496
0.187  0.3556165122805351  -0.4499550030530455
0.188  0.36610609993036375  -0.4370155960774173
0.189  0.3761483993797201  -0.4238492192347536
0.19  0.3857393099535646  -0.41047094010022706
0.191  0.3948752312449101  -0.39689586061569015
0.192  0.40355306108742106  -0.3831391006394591
0.193  0.4117701929916936  -0.3692157816670616
0.194  0.4195245130544436  -0.3551410107402535
0.195  0.42681439635037927  -0.3409298645611777
0.196  0.4336387028170668  -0.32659737382808873
0.197  0.4399967726436092  -0.31215850780859655
0.198  0.44588842117444555  -0.2976281591659081
0.199  0.45131393334005954  -0.2830211290530421
0.2  0.4562740576268217  -0.2683521124894877
0.201  0.4607699995986317  -0.2536356840342512
0.202  0.46480341498342537  -0.2388862837687019
0.203  0.46837640233800343  -0.224118203602082
0.20400000000000001  0.4714914953049955  -0.2093455739119882
0.20500000000000002  0.4741516544761196  -0.19458235053156714
0.20600000000000002  0.47636025887621236  -0.17984230209459384
0.20700000000000002  0.4781210970828025  -0.1651389977490172
0.20800000000000002  0.4794383579962711  -0.1504857952489724
0.209  0.48031662127589386  -0.13589582943465994
0.21  0.4807608474572881  -0.1213820011088978
0.211  0.4807763677669839  -0.10695696631854329
0.212  0.4803688736500334  -0.09263312604837898
0.213  0.4795444060267129  -0.07842261633444558
0.214  0.4783093442945228  -0.06433729880319392
0.215  0.4766703950917899  -0.050388751642218114
0.216  0.474634580839274  -0.03658826100771825
0.217  0.4722092280762444  -0.022946812873234697
0.218  0.4694019556075339  -0.009475085323583255
0.219  0.46622066247810556  0.0038165587026823436
0.22  0.4626735157916616  0.016918078219557278
0.221  0.4587689383898081  0.029819760546495485
0.222  0.4545155964082411  0.042512227206412304
0.223  0.44992238672636153  0.054986439367832374
0.224  0.44499842432663783  0.06723370283082107
0.225  0.43975302957993334  0.07924567255690665
0.226  0.4341957154728904  0.091014356743771
0.227  0.4283361747933205  0.10253212044603868
0.228  0.42218426728938346  0.11379168874404873
0.229  0.41575000681816604  0.12478614946302408
0.23  0.40904354849905994  0.13550895544559027
0.231  0.4020751758871347  0.14595392638110335
0.232  0.3948552881814584  0.15611525019575923
0.233  0.38739438748307375  0.16598748400794572
0.234  0.3797030661170734  0.17556555465378124
0.23500000000000001  0.37179199403293134  0.1848447587882507
0.23600000000000002  0.3636719062969596  0.19382076256780512
0.23700000000000002  0.35535359069044414  0.2024896009207279
0.23800000000000002  0.3468478754266951  0.21084767641200158
0.23900000000000002  0.3381656169999069  0.21889175770981462
0.24  0.3293176881783816  0.22661897766124792
0.241  0.320314966154304  0.23402683098505772
0.242  0.31116832086189034  0.24111317158984047
0.243  0.3018886034753522  0.24787620952620784
0.244  0.2924866350977243  0.25431450758193835
0.245  0.28297319565121254  0.2604269775293851
0.246  0.2733590129793029  0.2662128760347178
0.247  0.26365475217046624  0.271671800238861
0.248  0.2538710051128683  0.27680368302025476
0.249  0.24401828028906578  0.2816087879498131
0.25  0.23410699281924022  0.2860877039486852
0.251  0.22414745476108255  0.29024133965963916
0.252  0.21414986567399594  0.29407091754308395
0.253  0.2041243034548452  0.2975779677089246
0.254  0.1940807154520279  0.30076432149560495
0.255  0.18402890986419537  0.30363210480784325
0.256  0.17397854742949648  0.30618373122468334
0.257  0.16393913341076996  0.30842189488960225
0.258  0.15392000988165122  0.3103495631945057
0.259  0.1439303483181128  0.31196996926951653
0.26  0.13397914249950318  0.3132866042905234
0.261  0.12407520172269933  0.3143032096164995
0.262  0.11422714433254055  0.3150237687686247
0.263  0.10444339157126664  0.3154524992632597
0.264  0.09473216174924166  0.31559384431080845
0.265  0.08510146473880531  0.3154524643924901
0.266  0.0755590967926627  0.315033228727001
0.267  0.06611263568779549  0.3143412066389944
0.268  0.05676943619544847  0.31338165884124436
0.269  0.04753662587733913  0.3121600286422708
0.27  0.038421101207816194  0.3106819330911155
0.271  0.029429524021297195  0.3089531540708423
0.272  0.020568318283914977  0.3069796293522178
0.273  0.011843667187916703  0.3047674436188899
0.274  0.003261510566976085  0.3023228194752329
0.275  -0.005172457369790449  0.2996521084478706
0.276  -0.013452789987674947  0.29676178199171155
0.277  -0.02157428986302541  0.2936584225111504
0.278  -0.029532010109957263  0.2903487144068935
0.279  -0.03732125540073483  0.28683943515866067
0.28  -0.04493758268374919  0.2831374464537999
0.281  -0.052376801603336846  0.27924968537162737
0.28200000000000003  -0.059634974625978755  0.27518315563307155
0.28300000000000003  -0.06670841687771976  0.270944918924954
0.28400000000000003  -0.0735936956979209  0.26654208630799314
0.28500000000000003  -0.08028762991473172  0.26198180971735424
0.28600000000000003  -0.08678728884792214  0.2572712735643056
0.28700000000000003  -0.09308999104496446  0.252417686447268
0.28800000000000003  -0.09919330275648373  0.2474282729802622
0.289  -0.10509503615742165  0.24231026574648068
0.29  -0.11079324732046525  0.23707089738441303
0.291  -0.11628623394849075  0.2317173928136637
0.292  -0.12157253287295644  0.22625696160730235
0.293  -0.12665091732535375  0.22069679051727903
0.294  -0.1315203939889823  0.2150440361591371
0.295  -0.1361801998384677  0.2093058178619411
0.296  -0.14062979877457182  0.20348921068903
0.297  -0.14486887806197155  0.19760123863489026
0.298  -0.14889734457779322  0.19164886800312916
0.299  -0.15271532087878747  0.1856390009702119
0.3  -0.15632314109511744  0.17957846933931226
0.301  -0.15972134665880727  0.1734740284883057
0.302  -0.16291068187496188  0.1673323515156216
0.303  -0.1658920893439186  0.161160023587354
0.304  -0.1686667052425329  0.15496353648871555
0.305  -0.17123585447282538  0.14874928338260826
0.306  -0.17360104568623802  0.142523553777772
0.307  -0.17576396619174922  0.13629252870866596
0.308  -0.17772647675609388  0.13006227612892893
0.309  -0.17949060630431893  0.12383874651996743
0.31  -0.18105854652887665  0.11762776871591517
0.311  -0.18243264641542165  0.11143504594591809
0.312  -0.18361540669343068  0.10526615209440543
0.313  -0.18460947421970822  0.09912652817972088
0.314  -0.18541763630277142  0.09302147905120772
0.315  -0.18604281497603647  0.08695617030456398
0.316  -0.18648806122763964  0.08093562541501374
0.317  -0.18675654919463658  0.07496472308757517
0.318  -0.1868515703292175  0.06904819482344486
0.319  -0.1867765275444698  0.0631906227012676
0.32  -0.18653492934709864  0.05739643737181202
0.321  -0.18613038396439235  0.05166991626433144
0.322  -0.18556659347258675  0.046015182002658854
0.323  -0.1848473479336412  0.040436201028856325
0.324  -0.18397651954729635  0.03493678243201967
0.325  -0.18295805682512772  0.029520576979629433
0.326  -0.1817959787931534  0.024191076348633017
0.327  -0.18049436922938905  0.01895161255324839
0.328  -0.1790573709425749  0.013805357566287988
0.329  -0.17748918009812548  0.008755323130622506
0.33  -0.17579404059717307  0.0038043607572325784
0.331  -0.173976238514395  -0.0010448380938720828
0.332  -0.1720400966001257  -0.0057897416537408064
0.333  -0.16998996885206719  -0.01042797730959973
0.334  -0.16783023516171403  -0.014957330899164737
0.335  -0.16556529604041673  -0.019375745838445396
0.336  -0.16319956742980452  -0.023681322087458004
0.337  -0.16073747560109  -0.02787231495838574
0.338  -0.1581834521475729  -0.03194713377082481
0.339  -0.15554192907445652  -0.035904340358860455
0.34  -0.15281733398988326  -0.039742647434803005
0.341  -0.1500140854008895  -0.04346091681449879
0.342  -0.1471365881177706  -0.047058157509203245
0.343  -0.14418922877014015  -0.05053352368907224
0.34400000000000003  -0.14117637143775824  -0.053886312523382766
0.34500000000000003  -0.13810235339899588  -0.05711596190264637
0.34600000000000003  -0.13497148099959325  -0.060222048047820144
0.34700000000000003  -0.13178802564416606  -0.063204283011856
0.34800000000000003  -0.12855621991270416  -0.06606251207885251
0.34900000000000003  -0.12528025380410496  -0.06879671106609833
0.35000000000000003  -0.1219642711085798  -0.0714069835343025
0.35100000000000003  -0.11861236591057012  -0.07389355791131678
0.352  -0.11522857922361139  -0.07625678453464901
0.353  -0.11181689575838549  -0.07849713261805905
0.354  -0.10838124082500777  -0.08061518714751359
0.355  -0.10492547737040317  -0.08261164571175039
0.356  -0.10145340315143679  -0.0844873152726772
0.357  -0.0979687480442788  -0.08624310888079134
0.358  -0.09447517149030091  -0.08788004234076756
0.359  -0.09097626007862275  -0.08939923083231222
0.36  -0.08747552526525093  -0.09080188549132884
0.361  -0.08397640122858185  -0.0920893099563827
0.362  -0.08048224286087342  -0.09326289688538608
0.363  -0.07699632389512512  -0.0943241244473578
0.364  -0.07352183516664788  -0.09527455279403602
0.365  -0.0700618830084517  -0.09611582051604481
0.366  -0.06661948777942622  -0.09684964108823067
0.367  -0.06319758252414566  -0.09747779930869843
0.368  -0.05979901176298868  -0.09800214773598359
0.369  -0.0564265304111273  -0.098424603128703
0.37  -0.0530828028248067  -0.09874714289192546
0.371  -0.04977040197321457  -0.09897180153440233
0.372  -0.046491808734113876  -0.09910066714069132
0.373  -0.04324941131130072  -0.0991358778620983
0.374  -0.04004550477183461  -0.09907961843024954
0.375  -0.03688229070088512  -0.09893411669699326
0.376  -0.03376187697193738  -0.09870164020421178
0.377  -0.030686277630004834  -0.098384492787008
0.378  -0.027657412885405453  -0.09798501121360768
0.379  -0.02467710921557568  -0.09750556186519765
0.38  -0.02174709957231477  -0.09694853745879634
0.381  -0.018869023691779577  -0.09631635381612602
0.382  -0.01604442850447944  -0.09561144668133231
0.383  -0.01327476864245853  -0.09483626859026711
0.384  -0.010561407040793967  -0.09399328579392396
0.385  -0.007905615630483573  -0.09308497523848712
0.386  -0.005308576119751097  -0.09211382160432534
0.387  -0.0027713808607516635  -0.09108231440613364
0.388  -0.00029503379862227296  -0.08999294515629694
0.389  0.0021195485002097067  -0.08884820459342102
0.39  0.004471535743577583  -0.08765057997784759
0.391  0.006760182736125005  -0.08640255245584316
0.392  0.00898482813201437  -0.08510659449402484
0.393  0.011144893120965399  -0.08376516738545738
