t   Re(c(t))    Im(c(t))
0.0  1.0  0.0
0.01  0.9510763116983205  0.28755221186409347
0.02  0.8118440839759056  0.5393299001398593
0.03  0.603297700347047  0.726087377543998
0.04  0.3554760019309731  0.8300360447042672
0.05  0.10146876157022283  0.8470705935106482
0.06  -0.12861227023119765  0.7859993072764979
0.07  -0.3123038657547363  0.6653061462605195
0.08  -0.4372507127279899  0.5085367760845162
0.09  -0.5013004366912458  0.3395648063081393
0.1  -0.5106918999749592  0.17877819408051115
0.11  -0.4771492163968586  0.04077406383691556
0.12  -0.4147479231941536  -0.06634725935859828
0.13  -0.33723650287578877  -0.1403857654581182
0.14  -0.25619571031529215  -0.18364007029902915
0.15  -0.18011856669030998  -0.20121464143765277
0.16  -0.1142745041055469  -0.1994399001660162
0.17  -0.061110217451692  -0.18464510435707943
0.18  -0.020924835719446963  -0.16236695823277691
0.19  0.007395505679044756  -0.13696236478613805
0.2  0.025725047975993245  -0.11153149494314529
0.21  0.0361971212813242  -0.08803979787052368
0.22  0.0408684095063435  -0.06753939549853188
0.23  0.041529077562284286  -0.05041599365157434
0.24  0.03962385151847586  -0.036615393213595145
0.25  0.03624706508628734  -0.025827221219144877
0.26  0.03217998646885648  -0.017620099397324934
0.27  0.0279468972900569  -0.01153229420838175
0.28  0.02387453360275043  -0.007126418524756706
0.29  0.020146181758723555  -0.004017768232533672
0.3  0.01684651780710639  -0.0018849373078423247
0.31  0.01399632786575536  -0.00046959121260304226
0.32  0.01157793186110469  0.00042961135991042724
0.33  0.009552877856876016  0.0009656149961737889
0.34  0.007873641824103597  0.0012520392583543645
0.35000000000000003  0.006490926600198992  0.0013716029593950642
0.36  0.005357881130817063  0.001383386209098943
0.37  0.004432261512039525  0.0013287860128264476
0.38  0.0036772826163425226  0.0012362259381539205
0.39  0.003061684854258567  0.001124777203019067
0.4  0.002559368376413261  0.0010068802134977322
0.41000000000000003  0.002148821329273274  0.0008903513231881314
0.42  0.001812480897229038  0.0007798380997090946
0.43  0.0015361067605454484  0.0006778588252362998
0.44  0.001308208356809353  0.0005855344401491286
0.45  0.0011195436196602324  0.0005030966033942912
0.46  0.0009626929157033738  0.0004302350651303091
0.47000000000000003  0.0008317042803805493  0.0003663311886055774
0.48  0.0007218023913338435  0.00031061179509950124
0.49  0.0006291524218454817  0.0002622479340270788
0.5  0.000550669954018178  0.0002204160798444406
0.51  0.00048386885266206897  0.00018433407011421912
0.52  0.0004267400143230827  0.00015328035791118539
0.53  0.0003776549860252166  0.00012660248345017057
0.54  0.00033528947448379726  0.0001037187856894572
0.55  0.00029856268197744846  8.411605662839005e-05
0.56  0.00026658919019766336  6.734492736548873e-05
0.5700000000000001  0.00023864076916477008  5.301414753216441e-05
0.58  0.00021411602589270102  4.078449312659389e-05
0.59  0.00019251624228047422  3.0362751030950976e-05
0.6  0.00017342609988775493  2.1496038358294526e-05
0.61  0.0001564982660396634  1.3966590830010155e-05
0.62  0.00014144103456575482  7.5870753891549335e-06
0.63  0.00012800838687423928  2.196433477802942e-06
0.64  0.00011599197450282417  -2.343767302531689e-06
0.65  0.00010521463051869434  -6.1525110110481125e-06
0.66  9.552510038937958e-05  -9.332085698167597e-06
0.67  8.679374817063e-05  -1.197045719471741e-05
0.68  7.890904497745581e-05  -1.4143310084219517e-05
0.6900000000000001  7.177468679999187e-05  -1.591579860032976e-05
0.7000000000000001  6.530722021217117e-05  -1.7344046339776863e-05
0.71  5.943407928288464e-05  -1.8476429520548717e-05
0.72  5.4091956506835116e-05  -1.9354674386265918e-05
0.73  4.9225445971811954e-05  -2.001479545418045e-05
0.74  4.478590916194322e-05  -2.0487897727806717e-05
0.75  4.073052345713113e-05  -2.0800862787806983e-05
0.76  3.702148106948913e-05  -2.097693584110894e-05
0.77  3.362531227916613e-05  -2.1036228332868383e-05
0.78  3.0512311725025264e-05  -2.0996148580990925e-05
0.79  2.7656050426969316e-05  -2.0871771045890324e-05
0.8  2.5032959369292603e-05  -2.0676153265745713e-05
0.81  2.262197301539608e-05  -2.042060813504579e-05
0.8200000000000001  2.0404223179158303e-05  -2.0114938053300717e-05
0.8300000000000001  1.836277534449174e-05  -1.976763649153018e-05
0.84  1.6482400880324957e-05  -1.938606169310962e-05
0.85  1.4749379704075301e-05  -1.8976586520423584e-05
0.86  1.3151328851989026e-05  -1.854472786112941e-05
0.87  1.1677053157689827e-05  -1.8095258501000403e-05
0.88  1.031641485199085e-05  -1.763230394076551e-05
0.89  9.060219402382394e-06  -1.7159426270226185e-05
0.9  7.900115328960798e-06  -1.6679696903873704e-05
0.91  6.82850608129794e-06  -1.6195759719921077e-05
0.92  5.838472350350513e-06  -1.5709885922035972e-05
0.93  4.9237034315128855e-06  -1.5224021753580926e-05
0.9400000000000001  4.078436457796367e-06  -1.473983003306456e-05
0.9500000000000001  3.2974024923676255e-06  -1.4258726342445247e-05
0.96  2.575778613427406e-06  -1.3781910582703292e-05
0.97  1.9091452455982346e-06  -1.3310394511661635e-05
0.98  1.293448094745887e-06  -1.2845025793330169e-05
0.99  7.249641306404057e-07  -1.2386509015621563e-05
1.0  2.002711357597856e-07  -1.1935424070452436e-05
1.01  -2.8377959758116845e-07  -1.1492242236912811e-05
1.02  -7.300877856360969e-07  -1.1057340262351579e-05
1.03  -1.141326204341978e-06  -1.0631012696682473e-05
1.04  -1.519960550288679e-06  -1.0213482701194757e-05
1.05  -1.8682673542977587e-06  -9.804911524190007e-06
1.06  -2.188350160534916e-06  -9.405406810377916e-06
1.07  -2.4821541582655635e-06  -9.015029889309798e-06
1.08  -2.7514794310848184e-06  -8.633802169386756e-06
1.09  -2.9979929690448184e-06  -8.261710747650805e-06
1.1  -3.2232395721169036e-06  -7.89871333158618e-06
1.11  -3.4286517588176113e-06  -7.5447425569188806e-06
1.12  -3.6155587806317736e-06  -7.199709774825315e-06
1.1300000000000001  -3.7851948321535206e-06  -6.863508372859009e-06
1.1400000000000001  -3.938706536128449e-06  -6.5360166857540355e-06
1.1500000000000001  -4.077159774807833e-06  -6.2171005454380735e-06
1.16  -4.201545930562135e-06  -5.906615513480559e-06
1.17  -4.312787592503024e-06  -5.6044088339902775e-06
1.18  -4.411743779584758e-06  -5.3103211401293324e-06
1.19  -4.499214725507233e-06  -5.024187943718732e-06
1.2  -4.5759462660990855e-06  -4.745840933666174e-06
1.21  -4.642633865598308e-06  -4.4751091057661405e-06
1.22  -4.6999263146768226e-06  -4.211819744051054e-06
1.23  -4.7484291297488096e-06  -3.955799271233631e-06
1.24  -4.788707680119975e-06  -3.7068739836743024e-06
1.25  -4.8212900670175755e-06  -3.4648706847774293e-06
1.26  -4.846669776270788e-06  -3.229617228642855e-06
1.27  -4.865308124043445e-06  -3.000942984945112e-06
1.28  -4.877636513602256e-06  -2.778679234249978e-06
1.29  -4.884058519017724e-06  -2.562659502223532e-06
1.3  -4.884951810480617e-06  -2.3527198401098986e-06
1.31  -4.880669934459574e-06  -2.148699057958773e-06
1.32  -4.871543960662126e-06  -1.950438916338541e-06
1.33  -4.857884006836967e-06  -1.757784281786695e-06
1.34  -4.83998065128006e-06  -1.570583250424266e-06
1.35  -4.818106242219158e-06  -1.388687243641111e-06
1.36  -4.792516112241818e-06  -1.211951079717242e-06
1.37  -4.763449705315643e-06  -1.0402330240792238e-06
1.3800000000000001  -4.731131623454062e-06  -8.733948214042339e-07
1.3900000000000001  -4.695772599112593e-06  -7.113017116903745e-07
1.4000000000000001  -4.65757039922138e-06  -5.538224327241285e-07
1.41  -4.616710666019449e-06  -4.0082921075688663e-07
1.42  -4.573367699671808e-06  -2.521977410806037e-07
1.43  -4.527705186927181e-06  -1.0780716014219136e-07
1.44  -4.479876879948429e-06  3.245998959827551e-08
1.45  -4.430027229092754e-06  1.687178007916183e-07
1.46  -4.378291972936573e-06  3.0107704727165144e-07
1.47  -4.324798688823748e-06  4.296452341609195e-07
1.48  -4.269667306700936e-06  5.545266511609329e-07
1.49  -4.213010588999247e-06  6.758224283476522e-07
1.5  -4.154934578867168e-06  7.93630593676085e-07
1.51  -4.09553901911573e-06  9.080461319122051e-07
1.52  -4.034917743895823e-06  1.019161044190955e-06
1.53  -3.973159045023859e-06  1.1270644079191908e-06
1.54  -3.910346014625814e-06  1.2318424366235e-06
1.55  -3.8465568657751625e-06  1.3335785393412353e-06
1.56  -3.781865232625142e-06  1.432353379355077e-06
1.57  -3.716340451298937e-06  1.528244931869712e-06
1.58  -3.6500478228191484e-06  1.6213285405496134e-06
1.59  -3.583048859287413e-06  1.7116769726524195e-06
1.6  -3.5154015142273255e-06  1.7993604725423559e-06
1.61  -3.447160398164851e-06  1.8844468135789707e-06
1.62  -3.3783769802436122e-06  1.967001348184443e-06
1.6300000000000001  -3.309099776738914e-06  2.0470870559492254e-06
1.6400000000000001  -3.239374527139276e-06  2.1247645898577836e-06
1.6500000000000001  -3.1692443584642857e-06  2.20009232045332e-06
1.6600000000000001  -3.0987499384836653e-06  2.27312637800127e-06
1.67  -3.0279296182701484e-06  2.3439206926408975e-06
1.68  -2.9568195646630646e-06  2.412527032540998e-06
1.69  -2.885453883060159e-06  2.478995040062655e-06
1.7  -2.813864730911448e-06  2.5433722661893026e-06
1.71  -2.7420824223088074e-06  2.605704203079868e-06
1.72  -2.6701355239488424e-06  2.6660343150836767e-06
1.73  -2.5980509428562917e-06  2.724404068233633e-06
1.74  -2.5258540060287263e-06  2.780852958534939e-06
1.75  -2.4535685323489936e-06  2.8354185391609723e-06
1.76  -2.3812168969555112e-06  2.8881364469170044e-06
1.77  -2.3088200883421978e-06  2.9390404281440314e-06
1.78  -2.236397758414851e-06  2.9881623645569698e-06
1.79  -2.1639682657660353e-06  3.0355322991353092e-06
1.8  -2.0915487124368487e-06  3.081178462727761e-06
1.81  -2.019154974495139e-06  3.1251273014924914e-06
1.82  -1.9468017266679417e-06  3.1674035058582602e-06
1.83  -1.8745024616051698e-06  3.208030041323304e-06
1.84  -1.8022695039048723e-06  3.2470281815361346e-06
1.85  -1.7301140196850653e-06  3.2844175442136323e-06
1.86  -1.6580460220390579e-06  3.3202161303111722e-06
1.87  -1.5860743731643316e-06  3.3544403668208098e-06
1.8800000000000001  -1.5142067836500901e-06  3.3871051536932318e-06
1.8900000000000001  -1.442449809959655e-06  3.4182239151787047e-06
1.9000000000000001  -1.370808850671309e-06  3.4478086558366415e-06
1.9100000000000001  -1.2992881426123434e-06  3.4758700215080495e-06
1.92  -1.2278907577729014e-06  3.5024173652431475e-06
1.93  -1.156618601941489e-06  3.527458818168118e-06
1.94  -1.0854724162301936e-06  3.5510013652642727e-06
1.95  -1.0144517824957118e-06  3.573050925543235e-06
1.96  -9.435551336640835e-07  3.5936124362865504e-06
1.97  -8.727797701402219e-07  3.612689940723948e-06
1.98  -8.021218829231913e-07  3.6302866782689143e-06
1.99  -7.315765845378319e-07  3.6464051763905657e-06
2.0  -6.611379484099665e-07  3.6610473429968385e-06
2.0100000000000002  -5.907990570973733e-07  3.6742145583272376e-06
2.02  -5.20552060045755e-07  3.685907764331114e-06
2.0300000000000002  -4.50388240371386e-07  3.69612755116623e-06
2.04  -3.802980915312632e-07  3.704874238124563e-06
2.05  -3.1027140237390405e-07  3.712147948823575e-06
2.06  -2.4029735105042935e-07  3.7179486781514476e-06
2.07  -1.7036460623543151e-07  3.7222763503244643e-06
2.08  -1.0046143498756086e-07  3.7251308667447097e-06
2.09  -3.057581566284372e-08  3.726512142311087e-06
2.1  3.930444494897567e-08  3.726420130168066e-06
2.11  1.0919159262272842e-07  3.724854833472235e-06
2.12  1.7909780570504658e-07  3.7218163049201403e-06
2.13  2.4903507599829846e-07  3.7173046327916974e-06
2.14  3.1901509241003064e-07  3.7113199151794743e-06
2.15  3.8904912834284746e-07  3.703862221833669e-06
2.16  4.591479347647538e-07  3.6949315451685176e-06
2.17  5.293216397400352e-07  3.684527740974023e-06
2.18  5.995796556975362e-07  3.6726504602944404e-06
2.19  6.69930595235411e-07  3.659299073571274e-06
2.2  7.403821958994919e-07  3.6444725888998583e-06
2.21  8.109412542748704e-07  3.6281695651138936e-06
2.22  8.816135696452902e-07  3.61038802194428e-06
2.23  9.524038967114442e-07  3.5911253480140153e-06
2.24  1.0233159074769029e-06  3.570378208538638e-06
2.25  1.0943521612043266e-06  3.5481424535189183e-06
2.2600000000000002  1.1655140821761627e-06  3.5244130277355613e-06
2.27  1.2368019442239344e-06  3.499183883599343e-06
2.2800000000000002  1.3082148609586487e-06  3.4724478972661437e-06
2.29  1.379750780937361e-06  3.4441967890057582e-06
2.3000000000000003  1.4514064865636951e-06  3.414421048074681e-06
2.31  1.5231775957002665e-06  3.3831098624158494e-06
2.32  1.5950585649058196e-06  3.350251053359735e-06
2.33  1.667042693413809e-06  3.3158310153209023e-06
2.34  1.7391221266579862e-06  3.2798346603117724e-06
2.35  1.8112878587175681e-06  3.242245367225483e-06
2.36  1.8835297326406217e-06  3.2030449354450893e-06
2.37  1.955836437980046e-06  3.16221354248003e-06
2.38  2.0281955048427136e-06  3.1197297052742303e-06
2.39  2.1005932937828024e-06  3.0755702446405906e-06
2.4  2.1730149811501288e-06  3.0297102524611157e-06
2.41  2.2454445392137242e-06  2.9821230611873987e-06
2.42  2.3178647107571754e-06  2.932780215108967e-06
2.43  2.39025697780647e-06  2.8816514429634505e-06
2.44  2.4626015240253504e-06  2.8287046315417865e-06
2.45  2.53487719060959e-06  2.773905799773349e-06
2.46  2.6070614253799465e-06  2.7172190729089436e-06
2.47  2.6791302247705e-06  2.6586066565738558e-06
2.48  2.7510580685247807e-06  2.598028810225301e-06
2.49  2.822817846837732e-06  2.535443819806311e-06
2.5  2.894380779697527e-06  2.4708079693557082e-06
2.5100000000000002  2.9657163281704605e-06  2.4040755112847193e-06
2.52  3.036792097384266e-06  2.335198635214745e-06
2.5300000000000002  3.107573730826113e-06  2.2641274351569613e-06
2.54  3.178024795725433e-06  2.1908098749293085e-06
2.5500000000000003  3.248106659057246e-06  2.115191751709982e-06
2.56  3.3177783538833215e-06  2.037216657619443e-06
2.57  3.386996435446232e-06  1.9568259393656754e-06
2.58  3.455714826644466e-06  1.873958655808359e-06
2.59  3.5238846522399687e-06  1.7885515335153293e-06
2.6  3.5914540612661737e-06  1.7005389203569158e-06
2.61  3.6583680369368105e-06  1.609852737078267e-06
2.62  3.7245681933060017e-06  1.5164224270498527e-06
2.63  3.789992557935776e-06  1.420174904158673e-06
2.64  3.8545753395891384e-06  1.3210344990808548e-06
2.65  3.918246680021828e-06  1.2189229039483714e-06
2.66  3.980932388905211e-06  1.1137591157108255e-06
2.67  4.0425536605541595e-06  1.0054593782599288e-06
2.68  4.1030267713371125e-06  8.939371236264657e-07
2.69  4.162262756378302e-06  7.791029124999122e-07
2.7  4.220167063995683e-06  6.608643743572743e-07
2.71  4.276639186370763e-06  5.391261475772e-07
2.72  4.331572264524922e-06  4.137898199194212e-07
2.73  4.384852665887022e-06  2.847538697846024e-07
2.74  4.436359532189771e-06  1.5191360882797547e-07
2.75  4.4859642954998685e-06  1.5161126494312096e-08
2.7600000000000002  4.533530159926944e-06  -1.2561476292030885e-07
2.77  4.57891154638505e-06  -2.7052856994282827e-07
2.7800000000000002  4.621953497268387e-06  -4.196981754160422e-07
2.79  4.662491038247041e-06  -5.732448709462495e-07
2.8000000000000003  4.700348493350069e-06  -7.312933931905404e-07
2.81  4.735338749804228e-06  -8.939719507471226e-07
2.82  4.767262468392259e-06  -1.0614122424339937e-06
2.83  4.795907235000301e-06  -1.233749465253687e-06
2.84  4.82104664840273e-06  -1.411122310298566e-06
2.85  4.842439338791307e-06  -1.5936729448265265e-06
2.86  4.859827911568768e-06  -1.7815469780075618e-06
2.87  4.872937809694333e-06  -1.9748934081398224e-06
2.88  4.881476087856839e-06  -2.173864548309902e-06
2.89  4.885130090675853e-06  -2.378615927261492e-06
2.9  4.883566026678779e-06  -2.5893061621656488e-06
2.91  4.876427428827327e-06  -2.80609679887851e-06
2.92  4.863333491526761e-06  -3.029152115254156e-06
2.93  4.843877272991786e-06  -3.2586388823916115e-06
2.94  4.817623750905723e-06  -3.4947260778484625e-06
2.95  4.784107717972666e-06  -3.7375845442010457e-06
2.96  4.74283150237509e-06  -3.987386585497494e-06
2.97  4.6932624972791425e-06  -4.2443054931295356e-06
2.98  4.6348304809540036e-06  -4.50851499148396e-06
2.99  4.5669247079653205e-06  -4.78018859268971e-06
3.0  4.4888907494293455e-06  -5.059498847887845e-06
3.0100000000000002  4.400027057882187e-06  -5.3466164814077e-06
3.02  4.299581229962561e-06  -5.641709391854288e-06
3.0300000000000002  4.186745936848166e-06  -5.944941502393703e-06
3.04  4.0606544893457964e-06  -6.256471439698199e-06
3.0500000000000003  3.920376000526957e-06  -6.576451018827602e-06
3.06  3.76491010482592e-06  -6.905023507485149e-06
3.0700000000000003  3.593181187618765e-06  -7.242321640203351e-06
3.08  3.404032073973159e-06  -7.5884653483697734e-06
3.09  3.196217119329995e-06  -7.943559167629834e-06
3.1  2.96839463782869e-06  -8.307689278657587e-06
3.11  2.719118596361688e-06  -8.680920131291835e-06
3.12  2.4468294934892413e-06  -9.063290594697862e-06
3.13  2.149844332355647e-06  -9.454809568337418e-06
3.14  1.8263455852228712e-06  -9.855450979073909e-06
3.15  1.4743690342299389e-06  -1.0265148078961086e-05
3.16  1.091790357721418e-06  -1.0683786945823809e-05
3.17  6.7631031468575e-07  -1.111119907459702e-05
3.18  2.2543835973735744e-07  -1.1547152930586675e-05
3.19  -2.635255015066821e-07  -1.1991344316932451e-05
3.2  -7.935108330594751e-07  -1.2443385386300024e-05
3.21  -1.3676991119377225e-06  -1.2902792101108672e-05
3.22  -1.9895485761303603e-06  -1.3368969917155973e-05
3.23  -2.66282189987034e-06  -1.3841197430456224e-05
3.24  -3.391617066129114e-06  -1.4318607687358629e-05
3.25  -4.1804018618933865e-06  -1.4800166810915018e-05
3.2600000000000002  -5.034052486286705e-06  -1.528464954210989e-05
3.27  -5.957896837411399e-06  -1.5770611230772813e-05
3.2800000000000002  -6.957763132892803e-06  -1.6256355736813797e-05
3.29  -8.040034624020698e-06  -1.673989861533644e-05
3.3000000000000003  -9.21171128719397e-06  -1.721892485743092e-05
3.31  -1.0480479522982743e-05  -1.7690740339161543e-05
3.3200000000000003  -1.1854791067488464e-05  -1.815221599131459e-05
3.33  -1.3343952527656306e-05  -1.8599723537985845e-05
3.34  -1.4958227199893339e-05  -1.902906145894271e-05
3.35  -1.670895112747273e-05  -1.9435369603341692e-05
3.36  -1.8608665708119037e-05  -1.981303061466336e-05
3.37  -2.067126959135275e-05  -2.015555601137419e-05
3.38  -2.291219312257429e-05  -2.045545439598308e-05
3.39  -2.5348599217788302e-05  -2.070407882674469e-05
3.4  -2.7999615313942614e-05  -2.0891449868766192e-05
3.41  -3.088660196809882e-05  -2.100605023135217e-05
3.42  -3.403346481288283e-05  -2.103458617829126e-05
3.43  -3.7467017966269754e-05  -2.0961710049946524e-05
3.44  -4.1217408704130694e-05  -2.0769697236401773e-05
3.45  -4.531861531377063e-05  -2.0438069766350916e-05
3.46  -4.980903265643488e-05  -1.994315729740095e-05
3.47  -5.473216320627825e-05  -1.9257584679170224e-05
3.48  -6.013743536354865e-05  -1.834967337891465e-05
3.49  -6.608117587105697e-05  -1.7182741874222565e-05
3.5  -7.26277694599831e-05  -1.5714287599079252e-05
3.5100000000000002  -7.985104675284922e-05  -1.3895030149725373e-05
3.52  -8.783595139589355e-05  -1.1667792202016087e-05
3.5300000000000002  -9.668054993544124e-05  -8.966190972089427e-06
3.54  -0.00010649846381226058  -5.713109112927204e-06
3.5500000000000003  -0.00011742182294357475  -1.818909793796076e-06
3.56  -0.00012960486587561582  2.8206434348366453e-06
3.5700000000000003  -0.00014322834393893432  8.326805167264201e-06
3.58  -0.0001585049281668874  1.4840651055886371e-05
3.59  -0.0001756858704358772  2.252631202721944e-05
3.6  -0.00019506923752789118  3.157468427536698e-05
3.61  -0.00021701012264184274  4.220765148930635e-05
3.62  -0.0002419333483896254  5.46828388439909e-05
3.63  -0.0002703493149130574  6.929888750389341e-05
