t   Re(c(t))    Im(c(t))
0.0  1.0  0.0
0.01  0.956994314522484  0.2845933560581954
0.02  0.8322114162061061  0.5429641271272792
0.03  0.6378857406019076  0.7516267477795475
0.04  0.3929051421287513  0.8922513913809038
0.05  0.12074932296501845  0.9534868156700438
0.06  -0.1530373793526383  0.9319855387754125
0.07  -0.40353774888774724  0.832529879324734
0.08  -0.6090041368257937  0.6672685277655706
0.09  -0.7529650193284612  0.454180291006992
0.1  -0.8256716448919473  0.21497046898809888
0.11  -0.8247491130112814  -0.027335080574319714
0.12  -0.755017754905736  -0.25080939603049757
0.13  -0.6275514775129398  -0.43678216819763427
0.14  -0.4581266575474307  -0.5715077692758213
0.15  -0.2652777037791229  -0.64718824318625
0.16  -0.06820695195706035  -0.6622831405050612
0.17  0.11520484942307521  -0.621127455542308
0.18  0.27007294241930163  -0.5329587577881165
0.19  0.3857088957498791  -0.4105153630446221
0.2  0.45625813058610265  -0.2684028621877234
0.21  0.48076041399207264  -0.1214342474418465
0.22  0.4626879654434796  0.01686912808829809
0.23  0.40907080300912535  0.13546752651042035
0.24  0.3293545162015889  0.22658829696452243
0.25  0.23414943853315606  0.28606971787079105
0.26  0.13402300554649196  0.31328186680132064
0.27  0.0384624042219758  0.31068966400610654
0.28  -0.044902195048120236  0.2831557367231089
0.29  -0.11076621943669883  0.23709702180882875
0.3  -0.15630585052160204  0.17960925762221713
0.31  -0.18105128479775814  0.11765998393587858
0.32  -0.1865370052700489  0.05742711613007038
0.33  -0.1758039784261422  0.0038310798178785212
0.34  -0.15283313064224652  -0.039721599404402945
0.35000000000000003  -0.12198367432799831  -0.07139253583425453
0.36  -0.08749629753317235  -0.09079421013997474
0.37  -0.053102942878911465  -0.09874575696090389
0.38  -0.02176500294551446  -0.09695245899174314
0.39  0.004456985361609374  -0.08765851092993146
0.4  0.02441455294843054  -0.07331587069596522
0.41000000000000003  0.03778677238642875  -0.05630154062033086
0.42  0.044929313506370694  -0.03870345441847232
0.43  0.046687664293401855  -0.02218313224110197
0.44  0.04420249158284145  -0.007912852339063999
0.45  0.038729784849216936  0.003422789080979819
0.46  0.031491623966275466  0.01157598780217587
0.47000000000000003  0.023566301524697145  0.016652607898545814
0.48  0.01582005280471711  0.019013481004210016
0.49  0.008877445511434698  0.01917450008134501
0.5  0.003123887029092198  0.017716468340926588
0.51  -0.0012682338574072907  0.015211817261298975
0.52  -0.004298715436950655  0.012171601685745758
0.53  -0.006092267128096998  0.009013029786906422
0.54  -0.006851558679017159  0.006045430531246418
0.55  -0.006815494724724956  0.003471078033718213
0.56  -0.006225683792999821  0.0013966274233327873
0.5700000000000001  -0.005302328505580201  -0.0001490717397297185
0.58  -0.00422936854574864  -0.0011945194342981764
0.59  -0.0031477307127906226  -0.0018054124050971975
0.6  -0.0021549793403127216  -0.0020668396139883285
0.61  -0.0013094620716635522  -0.0020689992565481696
0.62  -0.0006371271342311181  -0.0018968646256378571
0.63  -0.00013945520764785155  -0.0016236576609213198
0.64  0.00019868696019993562  -0.0013076123776030284
0.65  0.00040207661247356494  -0.0009913114093429581
0.66  0.0004994971543524441  -0.0007028257197722694
0.67  0.0005195874073805288  -0.0004579400878970681
0.68  0.0004881175964263867  -0.00026286481774079676
0.6900000000000001  0.0004264947069049112  -0.00011698178467165984
0.7000000000000001  0.0003512315300385146  -1.5322864566374875e-05
0.71  0.0002740991362889613  4.938767147860147e-05
0.72  0.00020270510322981117  8.518841931559616e-05
0.73  0.00014128404973507038  9.981882943565716e-05
0.74  9.154005812007593e-05  0.00010007722153886855
0.75  5.343297005647904e-05  9.151264080765767e-05
0.76  2.5846311456691322e-05  7.83592561558729e-05
0.77  7.110702598969286e-06  6.362920171338807e-05
0.78  -4.6176965723561135e-06  4.9293903486137464e-05
0.79  -1.1108054647740578e-05  3.650075805384283e-05
0.8  -1.3911196803467316e-05  2.57885354713184e-05
0.81  -1.4295207491368755e-05  1.72792292469296e-05
0.8200000000000001  -1.3235683122445888e-05  1.0835400036640387e-05
0.8300000000000001  -1.1439766872138555e-05  6.180191320636081e-06
0.84  -9.387744417098256e-06  2.982425548008503e-06
0.85  -7.380613723117931e-06  9.120503160786278e-07
0.86  -5.586121328549482e-06  -3.2769267201026926e-07
0.87  -4.07902484020587e-06  -9.850765674926258e-07
0.88  -2.873742979507732e-06  -1.2561372976831412e-06
0.89  -1.9491646091430712e-06  -1.2878954647922732e-06
0.9  -1.2663468896359358e-06  -1.1852174879040799e-06
0.91  -7.803012256191714e-07  -1.019010930675142e-06
0.92  -4.4719702164469846e-07  -8.342995257933939e-07
0.93  -2.2823655075956464e-07  -6.573715380633675e-07
0.9400000000000001  -9.126847708034762e-08  -5.016521220010259e-07
0.9500000000000001  -1.0982201153007052e-08  -3.722458962401139e-07
0.96  3.16958625116315e-08  -2.692664125387873e-07
0.97  5.057565607065857e-08  -1.901500681719435e-07
0.98  5.527247489879603e-08  -1.3117391441732004e-07
0.99  5.221283762844811e-08  -8.838380063486704e-08
1.0  4.5498904752462975e-08  -5.810878445230357e-08
1.01  3.7605257783588754e-08  -3.7201337974039345e-08
1.02  2.991266788071208e-08  -2.310758051852179e-08
1.03  2.3099301206020787e-08  -1.384119384250106e-08
1.04  1.7415817773980928e-08  -7.91019036289765e-09
1.05  1.2870956667313302e-08  -4.227296083879965e-09
1.06  9.35124552516982e-09  -2.0216381065615526e-09
1.07  6.694255972750111e-09  -7.606612813240213e-10
1.08  4.730451643536144e-09  -8.568405639562097e-11
1.09  3.304731426946526e-09  2.3869639217883484e-10
1.1  2.2855074821417855e-09  3.627844813465137e-10
1.11  1.5666214884145615e-09  3.796514679223933e-10
1.12  1.0655294936164352e-09  3.4487736738833006e-10
1.1300000000000001  7.198632283632678e-10  2.9015790482376486e-10
1.1400000000000001  4.8358199217629e-10  2.3243635014687556e-10
1.1500000000000001  3.233522245767311e-10  1.7987003651902248e-10
1.16  2.154367621754501e-10  1.3562017924180733e-10
1.17  1.431724997356539e-10  1.0018499719106751e-10
1.18  9.500729678792077e-11  7.278431726237405e-11
1.19  6.30192955365536e-11  5.214381181974677e-11
1.2  4.18276061917932e-11  3.6911207392429744e-11
1.21  2.7807347153111702e-11  2.585501328541004e-11
1.22  1.8533782674251783e-11  1.7940620277509144e-11
1.23  1.239440708829143e-11  1.2341863618893208e-11
1.24  8.321990846329566e-12  8.421847189183076e-12
1.25  5.6126609810439456e-12  5.70232753015653e-12
1.26  3.803245865036468e-12  3.831366297457211e-12
1.27  2.5893438448521446e-12  2.554162594899201e-12
1.28  1.7708262242135038e-12  1.6887720550245802e-12
1.29  1.2159521375817718e-12  1.1067070080613209e-12
1.3  8.377954269549853e-13  7.181017448582561e-13
1.31  5.787528114175154e-13  4.606746627869497e-13
1.32  4.004683337832718e-13  2.9157045971829217e-13
1.33  2.772841087891939e-13  1.8151360563844886e-13
1.34  1.919135011221547e-13  1.1065550689371074e-13
1.35  1.3261841011058794e-13  6.56094192408651e-14
1.36  9.13981393833819e-14  3.740658052376201e-14
1.37  6.276551502937585e-14  2.0093800604805693e-14
1.3800000000000001  4.289915550702457e-14  9.748220511509567e-15
1.3900000000000001  2.9162427390137456e-14  3.788195850847898e-15
1.4000000000000001  1.9696104410734114e-14  5.406047874799859e-16
1.41  1.3217482650059403e-14  -1.0559764077189323e-15
1.42  8.796266955855288e-15  -1.6761864887849333e-15
1.43  5.8022643179856174e-15  -1.758061517461504e-15
1.44  3.7862533918987146e-15  -1.5640207640274548e-15
1.45  2.417939763506555e-15  -1.2481396811909436e-15
1.46  1.491818292053151e-15  -9.127550760042674e-16
1.47  8.595582840795473e-16  -6.014927035571901e-16
1.48  4.1783977486610027e-16  -3.509575948576057e-16
1.49  1.0561338038347661e-16  -1.692810429554146e-16
1.5  -1.1123524496147948e-16  -5.124714615282973e-17
1.51  -2.651255109510519e-16  8.205591520066526e-20
1.52  -3.6726488382951736e-16  -4.657813850995653e-18
1.53  -4.229568118351542e-16  -5.1729539460562554e-17
1.54  -4.340569347142792e-16  -1.2556650718973963e-16
1.55  -3.98936154430389e-16  -2.09862710456282e-16
1.56  -3.339511427195935e-16  -2.907818777720046e-16
1.57  -2.3958669736320937e-16  -3.6084744549424813e-16
1.58  -1.182232651720093e-16  -4.0116893588840417e-16
1.59  3.143820893280629e-18  -4.0983360573237717e-16
1.6  1.3023210474445515e-16  -3.832601283678374e-16
1.61  2.3482770217010693e-16  -3.27958528827744e-16
1.62  3.1671654600288097e-16  -2.312871907937335e-16
1.6300000000000001  3.5977538989794106e-16  -1.2056705454996697e-16
1.6400000000000001  3.678921571432208e-16  -9.188512517928182e-18
1.6500000000000001  3.4120624564179767e-16  9.877714023703552e-17
1.6600000000000001  2.835289992304059e-16  1.8438429721711997e-16
1.67  2.007170930097985e-16  2.417496212092929e-16
1.68  1.066692015285709e-16  2.7292782330874437e-16
1.69  9.141975354378055e-18  2.650552785068015e-16
1.7  -6.501676950237819e-17  2.3746128489020543e-16
1.71  -1.2410882249697307e-16  1.8406047658156407e-16
1.72  -1.5485740592843884e-16  1.2132101729442086e-16
1.73  -1.5646550405555307e-16  6.093275065670128e-17
1.74  -1.3129525243009627e-16  -1.5406184201147325e-18
1.75  -9.361953733653909e-17  -4.140561709171278e-17
1.76  -4.802008063470518e-17  -5.761019273306981e-17
1.77  -2.2605858340223844e-18  -5.4880938197951386e-17
1.78  3.5013865932991415e-17  -1.3857646337637661e-17
1.79  3.7231607177916274e-17  2.5716563646278046e-17
1.8  2.4438996858375996e-17  6.695017418676684e-17
1.81  -4.858700056383895e-18  1.1298752192724124e-16
1.82  -5.862763106059506e-17  1.3514371986000224e-16
1.83  -1.2729218280233205e-16  1.3039328537991047e-16
1.84  -1.912397026388187e-16  1.0024348424910912e-16
1.85  -2.348773769017488e-16  3.681055999111175e-17
1.86  -2.6332149610676414e-16  -4.367972787679606e-17
1.87  -2.6168857116872837e-16  -1.5258877509679896e-16
1.8800000000000001  -2.244270401231841e-16  -2.4476988198356166e-16
1.8900000000000001  -1.456700059235852e-16  -3.315409953034801e-16
1.9000000000000001  -4.290602976241222e-17  -3.901201165026155e-16
1.9100000000000001  7.897491467525337e-17  -4.069891005872475e-16
1.92  2.0912480527035886e-16  -3.8964102631852467e-16
1.93  3.460569878781998e-16  -3.2389178830157547e-16
1.94  4.496889699160965e-16  -2.107614564789759e-16
1.95  5.175530479650584e-16  -6.098335916736409e-17
1.96  5.220677124077901e-16  1.0790827848939121e-16
1.97  4.779200070989462e-16  2.793537604858159e-16
1.98  3.8429844280774207e-16  4.2988297133358844e-16
1.99  2.329911076430268e-16  5.376271435689205e-16
2.0  6.317162422699253e-17  5.978495658795924e-16
2.0100000000000002  -1.216768851062278e-16  6.183660683392058e-16
2.02  -2.9641149518006336e-16  5.870768085739359e-16
2.0300000000000002  -4.784938937518346e-16  4.833288776267206e-16
2.04  -6.284986046250536e-16  3.1623030895479086e-16
2.05  -7.21245388143268e-16  1.2612060359744828e-16
2.06  -7.460859246540817e-16  -7.943524511097363e-17
2.07  -6.958717774607385e-16  -3.137833783010668e-16
2.08  -5.683086687734423e-16  -5.291074733159997e-16
2.09  -3.9177717882966637e-16  -6.595952289799051e-16
2.1  -1.8149484550675309e-16  -7.23977208108162e-16
2.11  5.411371589622394e-17  -7.729817526350593e-16
2.12  2.844531317974095e-16  -7.037534618769286e-16
2.13  5.139257245202042e-16  -5.566367838696204e-16
2.14  6.6881300549683275e-16  -3.730986631116472e-16
2.15  7.897004650777021e-16  -1.5775367975773912e-16
2.16  8.17450242942651e-16  7.902743269624711e-17
2.17  7.754828350472845e-16  3.087768062831232e-16
2.18  6.495498286686769e-16  5.22285449400999e-16
2.19  4.791540968826336e-16  6.919115854573879e-16
2.2  2.655006450612449e-16  7.959032150526884e-16
2.21  8.92237755670545e-18  8.334486180993362e-16
2.22  -2.4929460177288296e-16  7.885650374643477e-16
2.23  -4.614037032702355e-16  6.87848855729965e-16
2.24  -6.447342747685211e-16  5.191359398139399e-16
2.25  -7.675655876016214e-16  3.022118390049858e-16
2.2600000000000002  -8.264690914458649e-16  3.568166023272626e-17
2.27  -8.049515963146998e-16  -2.0764684439250113e-16
2.2800000000000002  -7.010959639141742e-16  -4.303509849542619e-16
2.29  -5.399369687064872e-16  -6.079149218120558e-16
2.3000000000000003  -3.252900191487387e-16  -7.430645595066467e-16
2.31  -8.505903588001003e-17  -7.987695255099165e-16
2.32  1.4228783267245304e-16  -7.813631474980992e-16
2.33  3.5463892830836054e-16  -7.00509359952794e-16
2.34  5.26828531181625e-16  -5.596107088444082e-16
2.35  6.505177858061797e-16  -3.716791831923373e-16
2.36  6.978004704471353e-16  -1.7097899471995132e-16
2.37  6.973056946348768e-16  2.031701838708937e-17
2.38  6.518938653237033e-16  2.1118037513159232e-16
2.39  5.661692666575913e-16  3.7806911799748133e-16
2.4  4.368360329825593e-16  5.154073080656478e-16
2.41  2.692360516403441e-16  5.978095604520325e-16
2.42  9.368912885282872e-17  6.380650296725281e-16
2.43  -7.949815896309419e-17  6.338070591068803e-16
2.44  -2.4829337121538663e-16  5.859410903204123e-16
2.45  -3.907989277568862e-16  4.880650802379234e-16
2.46  -4.993976961392908e-16  3.61653971127779e-16
2.47  -5.722664608923421e-16  2.1420023907590264e-16
2.48  -6.060172878435037e-16  5.872953562072605e-17
2.49  -5.976441743864367e-16  -9.917439708147049e-17
2.5  -5.495126791622972e-16  -2.5208385017147553e-16
2.5100000000000002  -4.593476591279715e-16  -3.8212146673986597e-16
2.52  -3.3663836557672534e-16  -4.841522201307072e-16
2.5300000000000002  -2.014916592799422e-16  -5.571451884211415e-16
2.54  -5.410873957081345e-17  -5.855052183102792e-16
2.5500000000000003  1.0348205471214617e-16  -5.669825871442982e-16
2.56  2.5078397518000123e-16  -5.118951038081828e-16
2.57  3.761613881432197e-16  -4.2757831642195585e-16
2.58  4.762563544810489e-16  -3.1301672268205145e-16
2.59  5.392112461702867e-16  -1.739360600045634e-16
2.6  5.672372094571539e-16  -3.278256396392529e-17
2.61  5.651442393561374e-16  1.1074293528193562e-16
2.62  5.182843368234211e-16  2.4968866966737238e-16
2.63  4.3410454996290807e-16  3.588332107505788e-16
2.64  3.1918139545820235e-16  4.2673660105189354e-16
2.65  1.7911093005676184e-16  4.586720280276668e-16
2.66  2.5740697296821945e-17  4.3051031273350767e-16
2.67  -1.3901511761948164e-16  3.463701774577478e-16
2.68  -3.2192020725081016e-16  1.992886599756364e-16
2.69  -5.13005464919978e-16  -1.780884876833766e-17
2.7  -7.227083688867997e-16  -3.068847157096824e-16
2.71  -9.840340841429253e-16  -6.462690495096069e-16
2.72  -1.3491853994679072e-15  -1.0270952945665347e-15
2.73  -1.888169271040042e-15  -1.432979282845695e-15
2.74  -2.7078464340307888e-15  -1.8185835513274346e-15
2.75  -3.998455674619815e-15  -2.132109276067052e-15
2.7600000000000002  -5.978317369277543e-15  -2.2725413190242337e-15
2.77  -8.994366607672104e-15  -2.0799572032638797e-15
2.7800000000000002  -1.3536589964440214e-14  -1.257566771307605e-15
2.79  -2.0269431611053064e-14  6.142850058802584e-16
2.8000000000000003  -3.01551582109513e-14  4.2601957398395615e-15
2.81  -4.454692237695594e-14  1.0784924208683163e-14
2.82  -6.538356183602401e-14  2.195052096189275e-14
2.83  -9.541934956300912e-14  4.046752068089233e-14
2.84  -1.3863653173223155e-13  7.046336639726317e-14
2.85  -2.0077676642172185e-13  1.1821295682210477e-13
2.86  -2.9024002835122607e-13  1.9313859573238988e-13
2.87  -4.193148857437663e-13  3.0930954161454844e-13
2.88  -6.061576520678961e-13  4.87585667132933e-13
2.89  -8.777397673691011e-13  7.586645137413367e-13
2.9  -1.2743776560598358e-12  1.1674962775721685e-12
2.91  -1.856709371347648e-12  1.7793001939292058e-12
2.92  -2.7162856803732686e-12  2.6880998202035538e-12
2.93  -3.991898944226133e-12  4.028171961907199e-12
2.94  -5.89442823894584e-12  5.989433232053943e-12
2.95  -8.7446615624604e-12  8.837338527536037e-12
2.96  -1.3030668837571292e-11  1.2937920877579922e-11
2.97  -1.9494014671931335e-11  1.8787476330741312e-11
2.98  -2.9258642980475936e-11  2.7044977894948846e-11
2.99  -4.4021806617118066e-11  3.856197479903607e-11
3.0  -6.633404282998261e-11  5.439920189001771e-11
3.0100000000000002  -1.0000513932455255e-10  7.580924264150046e-11
3.02  -1.5068499427069841e-10  1.0414885624381962e-10
3.0300000000000002  -2.2668223834644803e-10  1.4065919742549902e-10
3.04  -3.400974753227279e-10  1.8601329939512157e-10
3.0500000000000003  -5.083592690264748e-10  2.394715010925654e-10
3.06  -7.562535046581041e-10  2.974002837018345e-10
3.0700000000000003  -1.1185191603432985e-09  3.507887247354453e-10
3.08  -1.643029975758041e-09  3.812310873456382e-10
3.09  -2.394464429801048e-09  3.5462516921737716e-10
3.1  -3.458146819274456e-09  2.1156000343027038e-10
3.11  -4.9433642985973055e-09  -1.4695932501978034e-10
3.12  -6.984853741075403e-09  -8.80153757164304e-10
3.13  -9.740210981964578e-09  -2.2365022221989764e-09
3.14  -1.3379590852770536e-08  -4.5933646709520595e-09
3.15  -1.806211602271261e-08  -8.509250729517339e-09
3.16  -2.3890787485232605e-08  -1.4790026782199734e-08
3.17  -3.083433624425577e-08  -2.4568550723665343e-08
3.18  -3.8600438194316474e-08  -3.939377932193466e-08
3.19  -4.644031846645899e-08  -6.131952758967304e-08
3.2  -5.286063967692718e-08  -9.297381489037913e-08
3.21  -5.521588228146937e-08  -1.3757604772620092e-07
3.22  -4.915512123638459e-08  -1.9885015198764876e-07
3.23  -2.7904096837652746e-08  -2.8075650080261315e-07
3.24  1.8619139035161116e-08  -3.8693420819571e-07
3.25  1.0482360622641262e-07  -5.197096661080066e-07
3.2600000000000002  2.5051312826322343e-07  -6.784910733772728e-07
3.27  4.818312860669365e-07  -8.573396384911671e-07
3.2800000000000002  8.317924704132034e-07  -1.0414984042867635e-06
3.29  1.3399485405207478e-06  -1.2026874568167273e-06
3.3000000000000003  2.0505435834178307e-06  -1.29306454380674e-06
3.31  3.0082860056317833e-06  -1.2379342007423924e-06
3.3200000000000003  4.250643891394425e-06  -9.276022785395933e-07
3.33  5.795393048410798e-06  -2.0925227592885783e-07
3.34  7.622090391207163e-06  1.1196067877633505e-06
3.35  9.646311147549778e-06  3.313696089753158e-06
3.36  1.168600938277051e-05  6.675053532244155e-06
3.37  1.342039269868812e-05  1.1536044649844958e-05
3.38  1.4343404115517188e-05  1.8224640330583455e-05
3.39  1.3716411798940715e-05  2.700560637296384e-05
3.4  1.0528082323301277e-05  3.799129442244713e-05
3.41  3.4735809182871074e-06  5.101701343249436e-05
3.42  -9.030085612310117e-06  6.54790847515337e-05
3.43  -2.8771174741755756e-05  8.013925063511795e-05
3.44  -5.758779200731448e-05  9.290762753091442e-05
3.45  -9.710380752498611e-05  0.00010062811834236627
3.46  -0.00014833291290721005  9.890488273389562e-05
3.47  -0.00021113670689485955  8.202513236673964e-05
3.48  -0.00028353991715565646  4.3050197306801597e-05
3.49  -0.0003609328396847388  -2.5839658418465936e-05
3.5  -0.00043522846620611653  -0.00013265521801208562
3.5100000000000002  -0.0004940885888744591  -0.000284478707430954
3.52  -0.00052038604955309  -0.00048585643419853266
3.5300000000000002  -0.0004921228186906062  -0.0007366966604016727
3.54  -0.00038306587835524783  -0.0010297460350143603
3.5500000000000003  -0.0001643817180063523  -0.0013478283599108805
3.56  0.00019247013598631095  -0.00166116577303163
3.5700000000000003  0.0007114002887991989  -0.0019252532840096797
3.58  0.0014058714983085326  -0.002079903219695968
3.59  0.0022717870478911307  -0.0020501879047648357
3.6  0.0032795755125142713  -0.001750050510401297
3.61  0.004366324969157602  -0.0010892847204906375
3.62  0.005429207578708517  1.5635809828859393e-05
3.63  0.006321791800180009  0.0016267975383971681
3.64  0.006855088309769839  0.0037666680935881276
3.65  0.0068052270155003515  0.006397775187801375
