t   Re(c(t))    Im(c(t))
0.0  1.0  0.0
0.01  0.9880019525990346  0.15137333564801173
0.02  0.9523389276780899  0.2988359730633245
0.03  0.8939940261235693  0.4385917021027248
0.04  0.8145719328213513  0.5670695513091342
0.05  0.716249414532125  0.6810271996860338
0.06  0.6017084137593472  0.7776437149945908
0.07  0.47405402408722486  0.8545986700776803
0.08  0.3367201319709765  0.910135178501016
0.09  0.1933659038254663  0.9431049642936782
0.1  0.047766571894634104  0.9529942147369775
0.11  -0.09629788070290633  0.9399296349272079
0.12  -0.23515251933335715  0.9046648022687196
0.13  -0.3653322379167527  0.8485475824356487
0.14  -0.48367825029382355  0.7734699913093954
0.15  -0.5874233675806841  0.6818024479058634
0.16  -0.6742635744884754  0.5763148424434992
0.17  -0.7424139313414861  0.460087226344647
0.18  -0.7906473968472345  0.33641320620708826
0.19  -0.8183157673957697  0.20869928518677436
0.2  -0.8253525393090112  0.08036344084554764
0.21  -0.81225809909941  -0.04526383927324959
0.22  -0.7800682128670813  -0.16503301786328206
0.23  -0.730307300958292  -0.27606068919026044
0.24  -0.6649284320422915  -0.3758040626929192
0.25  -0.5862423390086867  -0.46212275448575907
0.26  -0.4968380380581805  -0.5333263684747322
0.27  -0.3994978160629124  -0.5882068583761485
0.28  -0.2971094372278836  -0.626055186588812
0.29  -0.19257840921993  -0.6466623174910962
0.3  -0.08874304537382117  -0.650305084094256
0.31  0.011705129634746316  -0.6377179322742799
0.32  0.10629334858592394  -0.6100519620838841
0.33  0.19282999269912204  -0.568823039194912
0.34  0.2694558334753288  -0.5158510321165943
0.35000000000000003  0.3346829717922064  -0.4531924359317039
0.36  0.387420760098544  -0.3830687671147572
0.37  0.4269884395765722  -0.30779315554244335
0.38  0.45311466192426686  -0.2296975207711996
0.39  0.4659244809530383  -0.15106260427725082
0.4  0.4659147797130183  -0.07405294418599055
0.41000000000000003  0.4539194331387455  -0.0006586326498080485
0.42  0.4310657849212238  0.06735460124610676
0.43  0.3987242332431992  0.1284857767532968
0.44  0.3584528682321841  0.18152867197190012
0.45  0.3119391819383433  0.22559099380512088
0.46  0.26094087917866066  0.2601026193907869
0.47000000000000003  0.20722775689597428  0.2848131868782559
0.48  0.15252649516985595  0.299779655324565
0.49  0.09847002111628222  0.3053447606826554
0.5  0.046552875819434736  0.3021075580510699
0.51  -0.0019062562006446954  0.29088745201735905
0.52  -0.045793994922359214  0.2726832715099056
0.53  -0.08422314688900367  0.24862903966494687
0.54  -0.11654480053265535  0.2199481216221676
0.55  -0.1423517302507538  0.18790740490478272
0.56  -0.1614735039776095  0.15377308128087458
0.5700000000000001  -0.1739639609381957  0.11876946089428755
0.58  -0.18008196200818813  0.08404206591680007
0.59  -0.1802665073032683  0.05062603041403949
0.6  -0.17510745877619308  0.019420585087709972
0.61  -0.1653131962050683  -0.008829859624342067
0.62  -0.15167657160191694  -0.03354779026027497
0.63  -0.13504051046431748  -0.05432785252736423
0.64  -0.11626454119299118  -0.07093557783854677
0.65  -0.0961934210680986  -0.08330008265602643
0.66  -0.07562887476299782  -0.09150144704757358
0.67  -0.055305277216094406  -0.09575363860285165
0.68  -0.0358699055668443  -0.09638396462230832
0.6900000000000001  -0.017868164239097165  -0.09381010643230281
0.7000000000000001  -0.0017339628195420062  -0.0885158139584894
0.71  0.012214792346078862  -0.08102631746779355
0.72  0.02377583599042934  -0.07188444973654858
0.73  0.03285773579152311  -0.06162837061421057
0.74  0.03947121499512163  -0.05077165329522684
0.75  0.043717300213636776  -0.03978633500317786
0.76  0.04577306871855552  -0.029089362428353433
0.77  0.04587581014070084  -0.01903268271706842
0.78  0.04430641917278371  -0.00989705262545784
0.79  0.04137280081894684  -0.0018894697151758272
0.8  0.03739400178597454  0.004856022545927334
0.81  0.032685685989612696  0.010274533089955039
0.8200000000000001  0.027547455176029724  0.014364003907655055
0.8300000000000001  0.022252384382426212  0.017176922999741728
0.84  0.017039003772682373  0.018810658517685173
0.85  0.012105820616848631  0.0193970102167619
0.86  0.0076083447282011985  0.01909155176319326
0.87  0.0036584636275888934  0.018063288415831383
0.88  0.00032591508408639374  0.016485083700661853
0.89  -0.0023584718151364206  0.014525221356775198
0.9  -0.0043981480347549525  0.012340371033137197
0.91  -0.005825236370964991  0.010070124100522078
0.92  -0.00669435420629968  0.007833165459187042
0.93  -0.007076258046507911  0.005725053783136351
0.9400000000000001  -0.007051661718349861  0.003817500835764898
0.9500000000000001  -0.006705526062996479  0.002158973860915208
0.96  -0.006122053416210027  0.0007763959440271332
0.97  -0.005380549977681692  -0.00032231126255749206
0.98  -0.004552248105563887  -0.0011451100971763652
0.99  -0.003698113010691071  -0.0017124172410111457
1.0  -0.0028675980101778627  -0.002053604309027544
1.01  -0.002098262338720774  -0.002203639102603439
1.02  -0.0014161274557244318  -0.002200037421538719
1.03  -0.0008366227686598161  -0.0020802499481301926
1.04  -0.0003659596809652625  -0.0018795620393349838
1.05  -2.7729482926551076e-06  -0.0016295395433223578
1.06  0.00026012115505245355  -0.0013570137230757837
1.07  0.00043398157370394926  -0.0010835650882260223
1.08  0.0005325212673832719  -0.0008254407298752
1.09  0.000570487466337062  -0.0005938231865954625
1.1  0.000562494305187679  -0.0003953607959083303
1.11  0.0005221317193311486  -0.00023286914362098278
1.12  0.0004613506487151368  -0.00010611937657534952
1.1300000000000001  0.00039010519051967677  -1.2640241014508946e-05
1.1400000000000001  0.00031621807561612995  5.152494890529892e-05
1.1500000000000001  0.0002454268936220505  9.114930349539028e-05
1.16  0.00018156457863759682  0.00011126826606089179
1.17  0.00012682814761129377  0.00011675269698200395
1.18  8.209365889243045e-05  0.00011200888005738896
1.19  4.7241800777772715e-05  0.00010079545442574561
1.2  2.146638140970096e-05  8.61405388079708e-05
1.21  3.5463045644635298e-06  7.033851362030346e-05
1.22  -7.930432886612522e-06  5.500474300822517e-05
1.23  -1.4395209263467022e-05  4.116746503278005e-05
1.24  -1.7178589643739922e-05  2.937857514750811e-05
1.25  -1.7436294101490073e-05  1.98284798725112e-05
1.26  -1.6113609709386084e-05  1.2454053235302329e-05
1.27  -1.3939391139884367e-05  7.032527162074066e-06
1.28  -1.1440784670380586e-05  3.2575442192860284e-06
1.29  -8.970630999243633e-06  7.963778006109486e-07
1.3  -6.740845311388036e-06  -6.706196283835259e-07
1.31  -4.85665789245236e-06  -1.4259456879532803e-06
1.32  -3.3481954824817507e-06  -1.7031730852024662e-06
1.33  -2.197325394902309e-06  -1.6842266185990421e-06
1.34  -1.3588685829078952e-06  -1.5026873648830303e-06
1.35  -7.761699626008617e-07  -1.2505568221579274e-06
1.36  -3.9159686978313533e-07  -9.864840437120219e-07
1.37  -1.5285487472078583e-07  -7.440423190862563e-07
1.3800000000000001  -1.6118487693155624e-08  -5.39169584290852e-07
1.3900000000000001  5.306671980485322e-08  -3.76318474029266e-07
1.4000000000000001  8.028655079388848e-08  -2.531825176489248e-07
1.41  8.351638069641754e-08  -1.640777142072467e-07
1.42  7.466764749244556e-08  -1.0217879299123474e-07
1.43  6.111851937724502e-08  -6.085793885234077e-08
1.44  4.705716669998029e-08  -3.4372783398404924e-08
1.45  3.4563762667095145e-08  -1.8119983850641712e-08
1.46  2.4422222362971657e-08  -8.626659976172577e-09
1.47  1.6690259830821086e-08  -3.405647395885598e-09
1.48  1.1073456278140099e-08  -7.58918628403555e-10
1.49  7.15241294817607e-09  4.199740908168089e-10
1.5  4.507413956440707e-09  8.181321309031165e-10
1.51  2.7766535335874734e-09  8.402936872388392e-10
1.52  1.6748808913207398e-09  7.104101168846008e-10
1.53  9.909652886845e-10  5.42610448734018e-10
1.54  5.761540008408412e-10  3.8812795164264974e-10
1.55  3.2984988044256984e-10  2.646878667028922e-10
1.56  1.8639225460059062e-10  1.738777591817406e-10
1.57  1.0425338899614233e-10  1.1075191944240821e-10
1.58  5.790524639118823e-11  6.87044118253528e-11
1.59  3.205557902973458e-11  4.163885008492976e-11
1.6  1.7755819590867153e-11  2.4708528002332075e-11
1.61  9.87820616531127e-12  1.4376908370109514e-11
1.62  5.537440075589569e-12  8.209322234913636e-12
1.6300000000000001  3.134324693308398e-12  4.600835813839911e-12
1.6400000000000001  1.79234866263443e-12  2.5292883928793864e-12
1.6500000000000001  1.0342791366347602e-12  1.3618908963467155e-12
1.6600000000000001  6.00621573847034e-13  7.163006416890464e-13
1.67  3.496434163457806e-13  3.663856161592602e-13
1.68  2.0307362666152932e-13  1.8097009091495905e-13
1.69  1.1707158186532383e-13  8.529330171819326e-14
1.7  6.661343446253642e-14  3.752780238904826e-14
1.71  3.7196548428073185e-14  1.472361662766022e-14
1.72  2.0259157842558945e-14  4.482212425478646e-15
1.73  1.068201896762917e-14  3.4574920562990503e-16
1.74  5.381113385707824e-15  -1.0423151796402087e-15
1.75  2.553537202076711e-15  -1.2728853784284606e-15
1.76  1.12172650027147e-15  -1.0988202132877943e-15
1.77  4.602728469030082e-16  -8.356805276994607e-16
1.78  1.9439106721437042e-16  -6.014291075522243e-16
1.79  1.0134222112047151e-16  -4.3525627408186686e-16
1.8  9.904098234952361e-17  -3.3979194777977937e-16
1.81  1.5290369072871796e-16  -2.733527540801972e-16
1.82  2.1362982203489342e-16  -2.0753562905459548e-16
1.83  2.6463814064971174e-16  -1.430841483325065e-16
1.84  3.2588070000649785e-16  -7.602730753389246e-17
1.85  3.5246209024170617e-16  1.6889552532467838e-17
1.86  3.651488508338671e-16  8.567028778097995e-17
1.87  3.445495303315942e-16  1.481400765027273e-16
1.8800000000000001  3.3265729048912937e-16  2.082552309426105e-16
1.8900000000000001  3.076306090160054e-16  2.9618411185095765e-16
1.9000000000000001  2.5688216669294333e-16  3.498871147593422e-16
1.9100000000000001  1.9484835418276794e-16  4.089834851516983e-16
1.92  1.3174611393192425e-16  4.4130397935741936e-16
1.93  4.560313739730051e-17  4.910273542988119e-16
1.94  -3.425823492793814e-17  5.180128562236728e-16
1.95  -1.132320528736301e-16  5.284090667969e-16
1.96  -1.956590932497889e-16  5.228317618812225e-16
1.97  -2.9857387158035304e-16  5.043909101459842e-16
1.98  -3.937711404011957e-16  4.597748675227122e-16
1.99  -4.707352877981553e-16  3.987946493595923e-16
2.0  -5.258583371032152e-16  3.2737052538268223e-16
2.0100000000000002  -5.765736331942189e-16  2.287397074167289e-16
2.02  -6.19587649386495e-16  1.4843155572755248e-16
2.0300000000000002  -6.63150108820754e-16  6.041179232290239e-17
2.04  -6.722927307400176e-16  -5.896066283041251e-17
2.05  -6.732470912801977e-16  -1.9675983013226904e-16
2.06  -6.452221792512624e-16  -2.969632960583063e-16
2.07  -5.810316869669726e-16  -3.9764853588332614e-16
2.08  -5.230150554904727e-16  -4.997477107761561e-16
2.09  -4.4035324714317894e-16  -5.987284414065477e-16
2.1  -3.376104657100407e-16  -7.006217550347363e-16
2.11  -2.139365387594241e-16  -7.552600638802661e-16
2.12  -8.181743687175533e-17  -7.78682734738989e-16
2.13  5.2375460625108053e-17  -7.819715616146102e-16
2.14  1.7926110427212342e-16  -7.50764508377006e-16
2.15  2.79741576637862e-16  -7.355590254506466e-16
2.16  3.988871297289057e-16  -6.871020942643332e-16
2.17  4.991610220735391e-16  -6.121717319600493e-16
2.18  5.677770896629695e-16  -5.542771038929643e-16
2.19  6.492892403734455e-16  -4.584256049206234e-16
2.2  7.358984426390436e-16  -3.5820792727141432e-16
2.21  7.866080345335907e-16  -2.4343696381155735e-16
2.22  8.030121665179289e-16  -1.130157175456631e-16
2.23  8.197681134784486e-16  3.0275939009639965e-17
2.24  7.728015367283966e-16  1.6155607349212046e-16
2.25  7.319358470880491e-16  3.0697375725080806e-16
2.2600000000000002  6.778343180064447e-16  3.9983288417155435e-16
2.27  6.010052941051075e-16  4.587595732616444e-16
2.2800000000000002  5.247890132693324e-16  5.483069596440437e-16
2.29  4.3576170283700122e-16  5.977577196092174e-16
2.3000000000000003  3.302090354527179e-16  6.459718631486086e-16
2.31  2.2942463064758794e-16  6.883389244604075e-16
2.32  1.2935828196489838e-16  7.28307980550814e-16
2.33  2.0764057711207e-17  7.060106181153809e-16
2.34  -8.765983437935368e-17  6.952326258937436e-16
2.35  -1.806751575735726e-16  6.555888540034756e-16
2.36  -2.60561056296989e-16  6.113912496951953e-16
2.37  -3.3298184203417813e-16  5.387547992815771e-16
2.38  -4.016210376397397e-16  4.423768691586586e-16
2.39  -4.865376999680008e-16  3.13243080938244e-16
2.4  -5.992529087573832e-16  1.218564508647542e-16
2.41  -7.919927374488477e-16  -1.1272904616872867e-16
2.42  -1.181997592458468e-15  -4.4262414742679087e-16
2.43  -1.9771635884774654e-15  -8.248925335303082e-16
2.44  -3.594069859154178e-15  -1.0952129580059669e-15
2.45  -6.681958599578604e-15  -9.186934525071963e-16
2.46  -1.2399896040606984e-14  5.486170417562979e-16
2.47  -2.269137235330397e-14  5.097863615038148e-15
2.48  -4.081951876109746e-14  1.6335318977939404e-14
2.49  -7.223119777501419e-14  4.1308772928376286e-14
2.5  -1.2608437622463694e-13  9.340250229084158e-14
2.5100000000000002  -2.1787660396463352e-13  1.973963362505343e-13
2.52  -3.7445852700778056e-13  3.9832263731868525e-13
2.5300000000000002  -6.42902243111265e-13  7.764422655722713e-13
2.54  -1.1074329161384043e-12  1.4723204735733548e-12
2.5500000000000003  -1.9208675509199843e-12  2.7276805702969078e-12
2.56  -3.363168251810705e-12  4.950186775494268e-12
2.57  -5.949326778849176e-12  8.812635677941393e-12
2.58  -1.062462468263898e-11  1.539824783772868e-11
2.59  -1.911185705659603e-11  2.640111835691765e-11
2.6  -3.4513926420587825e-11  4.437880702300992e-11
2.61  -6.233375176271942e-11  7.302300979221685e-11
2.62  -1.1215079734019334e-10  1.1734873285944172e-10
2.63  -2.002898151576556e-10  1.8357680631274172e-10
2.64  -3.5391821553361655e-10  2.7826495715738865e-10
2.65  -6.170803661371542e-10  4.058830132243085e-10
2.66  -1.0591550426398877e-09  5.634779849833736e-10
2.67  -1.7859913902073981e-09  7.302887154160482e-10
2.68  -2.953362786249658e-09  8.491333693098497e-10
2.69  -4.781124674439089e-09  7.951574629901528e-10
2.7  -7.564251933098413e-09  3.26273388600358e-10
2.71  -1.1673404811757131e-08  -9.91282493907197e-10
2.72  -1.7532508424961777e-08  -3.888751379134986e-09
2.73  -2.5553880029101666e-08  -9.536393568964776e-09
2.74  -3.600292372918052e-08  -1.971969222026507e-08
2.75  -4.8755200600257124e-08  -3.703864512958144e-08
2.7600000000000002  -6.290059066318824e-08  -6.510124876964317e-08
2.77  -7.614535266522733e-08  -1.0865662746916771e-07
2.7800000000000002  -8.396764485720234e-08  -1.7357866175051014e-07
2.79  -7.850135792185803e-08  -2.6656852507693127e-07
2.8000000000000003  -4.7163728828245866e-08  -3.94398045269933e-07
2.81  2.8889063676819226e-08  -5.624727375468686e-07
2.82  1.762920846939728e-07  -7.724655983627548e-07
2.83  4.306646074994682e-07  -1.018776789889031e-06
2.84  8.369763431961991e-07  -1.2836305343848842e-06
2.85  1.448415292350384e-06  -1.5307511005008333e-06
2.86  2.32291341642078e-06  -1.697785320450293e-06
2.87  3.5163623650937497e-06  -1.6879736841952085e-06
2.88  5.071525845902696e-06  -1.362017050859235e-06
2.89  7.0017864778011276e-06  -5.316233765378453e-07
2.9  9.269213617741738e-06  1.0431948710220986e-06
2.91  1.1757057237276806e-05  3.6504397173683033e-06
2.92  1.4237693474460662e-05  7.612995073049397e-06
2.93  1.6338267352455456e-05  1.326279509129344e-05
2.94  1.7507746256021425e-05  2.0899266258768205e-05
2.95  1.6990703618147885e-05  3.0729777841154066e-05
2.96  1.3814720682415993e-05  4.2791256558150705e-05
2.97  6.799588154982449e-06  5.6854268813645444e-05
2.98  -5.402776510280132e-06  7.231373580152706e-05
2.99  -2.4228915995430096e-05  8.8073908694007e-05
3.0  -5.107744687722646e-05  0.00010243905822033656
3.0100000000000002  -8.713093549422625e-05  0.00011302516552662903
3.02  -0.00013312553141562577  0.0001167112652461423
3.0300000000000002  -0.00018907364859408696  0.00010965142779420284
3.04  -0.00025395210878936174  8.736907859825221e-05
3.0500000000000003  -0.000325376196191078  4.495386545386629e-05
3.06  -0.0003992883771277607  -2.2622869632056614e-05
3.0700000000000003  -0.00046969817835872075  -0.00012006507179481954
3.08  -0.0005285159094855761  -0.0002511825746991942
3.09  -0.000565526508662641  -0.0004182093136040272
3.1  -0.0005685497669817332  -0.000621038051178242
3.11  -0.000523828673761442  -0.0008564165246302795
3.12  -0.0004166780174804945  -0.0011171657199898872
3.13  -0.00023241044877496137  -0.0013914950100455121
3.14  4.2462794838714636e-05  -0.0016624994630135153
3.15  0.0004187836200387925  -0.0019079300508854848
3.16  0.000903105703099528  -0.002100326238022757
3.17  0.0014959429651439475  -0.002207591326087973
3.18  0.002190018346598256  -0.0021940732798602985
3.19  0.0029686473097729443  -0.002022187497236521
3.2  0.003804408381777716  -0.001654583773914627
3.21  0.004658262373786321  -0.001056818966753823
3.22  0.005479280555089706  -0.0002004517342192638
3.23  0.006205128457182592  0.0009335709692239711
3.24  0.006763425318961533  0.0023514109449440787
3.25  0.007074059540293185  0.004042934309245392
3.2600000000000002  0.007052488954746511  0.0059786512304845696
3.27  0.006613993334842933  0.00810726386747328
3.2800000000000002  0.005678778324088851  0.010354089627285018
3.29  0.004177758783259033  0.0126206125620521
3.3000000000000003  0.0020587797893787787  0.014785382882856935
3.31  -0.000707029969805054  0.016706433185576113
3.3200000000000003  -0.004119130063010239  0.018225311303605933
3.33  -0.008142059841595434  0.019172746226430563
3.34  -0.012700961141527174  0.019375868933258388
3.35  -0.01767853812046393  0.018666808993642838
3.36  -0.02291383006062095  0.016892385878652307
3.37  -0.028203117730055384  0.01392451709738331
3.38  -0.03330320448183804  0.009670879667884442
3.39  -0.037937212117816234  0.004085292979810873
3.4  -0.041802912525872496  -0.0028227548401638805
3.41  -0.04458348437853163  -0.01098003396358091
3.42  -0.0459604459718832  -0.020243539083478736
3.43  -0.04562837755328807  -0.030397037636980352
3.44  -0.04331091659604871  -0.04115066790529993
3.45  -0.03877739479887077  -0.052143949591822475
3.46  -0.031859393096730595  -0.06295243716311288
3.47  -0.022466426869362816  -0.07309809177395862
3.48  -0.010599942893961843  -0.08206327726422137
3.49  0.003635183953916566  -0.08930810690498171
3.5  0.02002242072396202  -0.09429068845409426
3.5100000000000002  0.03822929487390801  -0.0964896442212898
3.52  0.057807620728704295  -0.09542812879044049
3.5300000000000002  0.07819863732744833  -0.09069843792274304
3.54  0.09874327640376968  -0.0819862052621444
3.5500000000000003  0.11869757288205854  -0.069093124882612
3.56  0.1372530103292128  -0.0519571220483665
3.5700000000000003  0.1535613693143565  -0.030668924641940237
3.58  0.16676342716452008  -0.005484064467083046
3.59  0.17602065285038895  0.023170540036939916
3.6  0.18054886008077803  0.05469610332084296
3.61  0.1796526338047227  0.08832807585401255
3.62  0.17275923779957233  0.12314907920272929
3.63  0.15945065001289704  0.1581086658948394
3.64  0.13949236226142336  0.19204962832198025
3.65  0.11285762428015592  0.22374030950130785
3.66  0.07974590940418869  0.2519121048995971
3.67  0.04059452868096793  0.27530109937187053
3.68  -0.003917481811786662  0.2926925668297966
3.69  -0.052873834972499936  0.3029668819607664
3.7  -0.10513418666520283  0.3051452614043719
3.71  -0.15935610638627856  0.2984336729735332
3.72  -0.21402556355897417  0.28226323069729886
3.73  -0.2674953460689042  0.25632543356304976
3.74  -0.31803051238866  0.2206007075945892
