t   Re(c(t))    Im(c(t))
0.0  1.0  0.0
0.001  0.999910603096621  0.013124579486719336
0.002  0.9996424306373977  0.026246641814981438
0.003  0.9991955373709237  0.039363670369934135
0.004  0.9985700145310311  0.05247314962380604
0.005  0.9977659898160569  0.06557256567912316
0.006  0.9967836273598243  0.07865940681153775
0.007  0.9956231276943452  0.0917311640121396
0.008  0.9942847277042532  0.10478533152912095
0.009000000000000001  0.9927687005729772  0.11781940740866591
0.01  0.9910753557206722  0.13083089403493586
0.011  0.9892050387339206  0.14381729866902251
0.012  0.987158131287218  0.1567761339867397
0.013000000000000001  0.9849350510562722  0.16970491861512674
0.014  0.9825362516231277  0.18260117766753559
0.015  0.9799622223731421  0.195462443277174
0.016  0.9772134883838448  0.20828625512897914
0.017  0.9742906103056973  0.22107016098969356
0.018000000000000002  0.9711941842347912  0.23381171723601898
0.019  0.9679248415775139  0.24650848938072203
0.02  0.9644832489072123  0.2591580525965663
0.021  0.9608701078128967  0.27175799223794883
0.022  0.957086154740014  0.2843059043601127
0.023  0.9531321608233378  0.29679939623581797
0.024  0.9490089317120125  0.30923608686934484
0.025  0.9447173073867934  0.3216136075077079
0.026000000000000002  0.9402581619695344  0.333929602148962
0.027  0.9356324035249621  0.34618172804747754
0.028  0.930840973854793  0.3583676562160662
0.029  0.9258848482842421  0.3704850719248394
0.03  0.9207650354409707  0.3825316751966805
0.031  0.9154825770265392  0.3945051812992135
0.032  0.9100385475804114  0.4064033212331533
0.033  0.9044340542365733  0.4182238422169223
0.034  0.8986702364728265  0.42996450816741705
0.035  0.8927482658528176  0.441623100176815
0.036000000000000004  0.8866693457608679  0.4531974169853066
0.037  0.8804347111296681  0.4646852754496423
0.038  0.8740456281609076  0.476084511007385
0.039  0.8675033940389048  0.4873929781367595
0.04  0.8608093366373094  0.4986085508119872
0.041  0.8539648142189549  0.5097291229540066
0.042  0.8469712151289249  0.5207526088764665
0.043000000000000003  0.839829957480919  0.5316769437268924
0.044  0.8325424888369919  0.5425000839229223
0.045  0.8251102858807425  0.5532200075835084
0.046  0.8175348540840379  0.563834714954987
0.047  0.809817727367353  0.5743422288319139
0.048  0.801960467753808  0.5847405949725717
0.049  0.7939646650169911  0.5950278825090485
0.05  0.7858319363226514  0.6052021843517972
0.051000000000000004  0.7775639258643545  0.6152616175885769
0.052000000000000005  0.7691623044931853  0.6252043238776881
0.053  0.760628769341591  0.6350284698354112
0.054  0.7519650434414596  0.6447322474175536
0.055  0.7431728753365254  0.6543138742950265
0.056  0.7342540386891958  0.6637715942233571
0.057  0.7252103318818999  0.6731036774060548
0.058  0.7160435776130529  0.6823084208517516
0.059000000000000004  0.70675562248774  0.6913841487250285
0.06  0.6973483366032149  0.7003292126908531
0.061  0.6878236131293192  0.7091419922525497
0.062  0.6781833678839252  0.7178208950832217
0.063  0.6684295389035033  0.7263643573505569
0.064  0.658564086008924  0.7347708440349384
0.065  0.6485889903665949  0.7430388492407899
0.066  0.6385062540450469  0.7511668965010881
0.067  0.6283178995670737  0.7591535390749734
0.068  0.6180259694575357  0.7669973602383883
0.069  0.6076325257869384  0.774696973567687
0.07  0.5971396497108986  0.7822510232161465
0.07100000000000001  0.5865494410056095  0.7896581841833217
0.07200000000000001  0.5758640175994167  0.7969171625771843
0.073  0.5650855151006249  0.8040266958689903
0.074  0.554216086321643  0.8109855531408153
0.075  0.5432579007995912  0.817792535325713
0.076  0.5322131443134809  0.8244464754404369
0.077  0.5210840183980884  0.8309462388106765
0.078  0.5098727398546415  0.8372907232887692
0.079  0.4985815402584341  0.8434788594638273
0.08  0.48721266546349196  0.8495096108642483
0.081  0.47576837510440995  0.8553819741525622
0.082  0.4642509420954804  0.8610949793125722
0.083  0.4526626521272341  0.8666476898287553
0.084  0.4410058031605174  0.8720392028578865
0.085  0.42928270491822657  0.8772686493928474
0.08600000000000001  0.4174956783748243  0.8823351944185934
0.08700000000000001  0.405647055243761  0.887238037060244
0.088  0.3937391774629223  0.8919764107232692
0.089  0.38177439667823365  0.8965495832257482
0.09  0.3697550737255393  0.9009568569226731
0.091  0.35768357811088625  0.9051975688222753
0.092  0.34556228748933526  0.9092710906943552
0.093  0.33339358714242645  0.9131768291705985
0.094  0.3211798694544241  0.9169142258368574
0.095  0.3089235333874669  0.920482757317389
0.096  0.29662698395575066  0.9238819353510341
0.097  0.28429263169886887  0.9271113068593272
0.098  0.271922892154437  0.9301704540065288
0.099  0.2595201853301289  0.9330589942515763
0.1  0.2470869351752495  0.9357765803919466
0.101  0.2346255690519722  0.9383229005994274
0.10200000000000001  0.22213851720636568  0.9406976784478008
0.10300000000000001  0.2096282122393378  0.9429006729324375
0.10400000000000001  0.19709708857762204  0.9449316784818061
0.105  0.184547581944933  0.9467905249609038
0.106  0.17198212883341643  0.9484770776666184
0.107  0.1594031659755202  0.9499912373150249
0.108  0.14681312981641093  0.9513329400206377
0.109  0.134214455987062  0.9525021572676233
0.11  0.12160957877813752  0.953498895872995
0.111  0.10900093061479732  0.9543231979418053
0.112  0.09639094153254697  0.9549751408143579
0.113  0.08378203865425593  0.9554548370054532
0.114  0.07117664566846865  0.9557624341357043
0.115  0.058577182309130366  0.9558981148549379
0.116  0.045986063836850444  0.9558620967577097
0.117  0.033405700521825565  0.9556546322909683
0.11800000000000001  0.02083849712854345  0.955276008653895
0.11900000000000001  0.00828685240238839  0.9547265476899542
0.12  -0.00424684144173141  0.9540066057711881
0.121  -0.016760199228615037  0.9531165736747964
0.122  -0.029250843329739686  0.9520568764520324
0.123  -0.041716404167853625  0.9508279732894702
0.124  -0.0541545207190725  0.9494303573626667
0.125  -0.06656284101236386  0.9478645556822806
0.126  -0.07893902262630287  0.9461311289326843
0.127  -0.0912807331829848  0.9442306713031199
0.128  -0.10358565083897996  0.9421638103114495
0.129  -0.11585146477321727  0.9399312066205514
0.13  -0.12807587567168546  0.9375335538474158
0.131  -0.14025659620883824  0.9349715783649937
0.132  -0.15239135152559505  0.9322460390968579
0.133  -0.16447787970382674  0.9293577273047348
0.134  -0.17651393223721756  0.926307466368966
0.135  -0.18849727449839704  0.923096111561963
0.136  -0.200425686202234  0.9197245498147176
0.137  -0.21229696186518862  0.9161936994764347
0.138  -0.2241089112606175  0.9125045100673534
0.139  -0.23585935986992915  0.9086579620248254
0.14  -0.24754614932948835  0.9046550664427224
0.14100000000000001  -0.2591671378731681  0.9004968648042413
0.14200000000000002  -0.2707202007704494  0.8961844287081823
0.14300000000000002  -0.2822032307599728  0.891718859588775
0.14400000000000002  -0.29361413847844203  0.8871012884291288
0.145  -0.30495085288478563  0.8823328754683843
0.146  -0.31621132167948257  0.877414809902645
0.147  -0.3273935117189579  0.8723483095797736
0.148  -0.33849540942495776  0.867134620688129
0.149  -0.3495150211888124  0.8617750174393312
0.15  -0.36045037377050015  0.8562708017451423
0.151  -0.3712995146924234  0.850623302888539
0.152  -0.38206051262781116  0.8448338771890788
0.153  -0.39273145778366336  0.8389039076626368
0.154  -0.40331046227815676  0.8328348036756064
0.155  -0.4137956605124245  0.8266280005936599
0.156  -0.42418520953663796  0.8202849594251591
0.157  -0.4344772894103044  0.8138071664593012
0.158  -0.4446701035567097  0.8071961328991121
0.159  -0.4547618791114273  0.8004533944893674
0.16  -0.4647508672648207  0.7935805111395445
0.161  -0.47463534359846893  0.7865790665419086
0.162  -0.48441360841544157  0.779450667784822
0.163  -0.49408398706435763  0.7721969449613851
0.164  -0.5036448302571588  0.7648195507735079
0.165  -0.5130945143805339  0.7573201601315143
0.166  -0.5224314418009285  0.7497004697493801
0.167  -0.531654041163079  0.7419621977357148
0.168  -0.5407607676820113  0.7341070831805874
0.169  -0.5497501034284439  0.7261368857383015
0.17  -0.5586205576075397  0.7180533852062319
0.171  -0.5673706668309512  0.709858381099825
0.17200000000000001  -0.5759989953821066  0.7015536922238748
0.17300000000000001  -0.5845041354746832  0.6931411562401795
0.17400000000000002  -0.5928847075042198  0.6846226292316954
0.17500000000000002  -0.601139360292821  0.675999985263291
0.176  -0.6092667713269044  0.6672751159392174
0.177  -0.61726564698795  0.6584499299574069
0.178  -0.6251347227762059  0.6495263526607074
0.179  -0.6328727635273119  0.6405063255851727
0.18  -0.6404785636218008  0.6313918060055161
0.181  -0.6479509471874426  0.6221847664778446
0.182  -0.6552887682943929  0.6128871943797876
0.183  -0.6624909111431144  0.6035010914481348
0.184  -0.6695562902450418  0.5940284733140977
0.185  -0.676483850595957  0.5844713690363139
0.186  -0.6832725678420473  0.5748318206317048
0.187  -0.6899214484386262  0.5651118826043086
0.188  -0.6964295298014851  0.5553136214722022
0.189  -0.7027958804508577  0.5454391152926304
0.19  -0.7090196001479792  0.5354904531854568
0.191  -0.7150998200242176  0.5254697348550587
0.192  -0.7210357027027627  0.5153790701107801
0.193  -0.7268264424128612  0.5052205783860602
0.194  -0.732471265096578  0.49499638825635756
0.195  -0.7379694285080816  0.4847086369559863
0.196  -0.7433202223054381  0.47435946989398253
0.197  -0.7485229681349117  0.4639510401691189
0.198  -0.7535770197077623  0.45348550808418636
0.199  -0.7584817628695406  0.4429650406596586
0.2  -0.7632366156618786  0.4323918111468591
0.201  -0.7678410283767736  0.4217679985407493
0.202  -0.772294483603372  0.4110957870924514
0.203  -0.7765964962672562  0.40037736582162764
0.20400000000000001  -0.7807466136622373  0.3896149280288318
0.20500000000000002  -0.7847444154746664  0.3788106708079482
0.20600000000000002  -0.7885895138002729  0.36796679455883746
0.20700000000000002  -0.7922815531535408  0.3570855025003041
0.20800000000000002  -0.7958202104696367  0.3461690001835018
0.209  -0.799205195098905  0.33521949500589354
0.21  -0.80243624879395  0.3242391957258808
0.211  -0.8055131456893205  0.3132303119782167
0.212  -0.8084356922738186  0.3021950537903184
0.213  -0.8112037273554572  0.29113563109959323
0.214  -0.8138171220190916  0.28005425327189004
0.215  -0.8162757795767454  0.268953128621191
0.216  -0.8185796355106659  0.2578344639306566
0.217  -0.8207286574091364  0.24670046397513287
0.218  -0.8227228448950742  0.2355533310452355
0.219  -0.8245622295474526  0.22439526447311997
0.22  -0.8262468748155755  0.2132284601600478
0.221  -0.8277768759262498  0.20205511010585844
0.222  -0.8291523597838881  0.19087740194045572
0.223  -0.8303734848635789  0.17969751845741577
0.224  -0.8314404410971776  0.16851763714982554
0.225  -0.8323534497524481  0.15733992974845573
0.226  -0.8331127633053117  0.14616656176237539
0.227  -0.8337186653052412  0.1349996920221127
0.228  -0.8341714702338546  0.12384147222546489
0.229  -0.8344715233567549  0.1126940464860608
0.23  -0.8346192005686697  0.10155955088477829
0.231  -0.8346149082319418  0.09044011302411677
0.232  -0.8344590830084269  0.07933785158562578
0.233  -0.8341521916848541  0.06825487589048783
0.234  -0.8336947309917074  0.05719328546335414
0.23500000000000001  -0.833087227415684  0.046155169599530255
0.23600000000000002  -0.8323302370057963  0.03514260693560708
0.23700000000000002  -0.8314243451731764  0.024157665023632584
0.23800000000000002  -0.8303701664846413  0.01320239990891774
0.23900000000000002  -0.8291683444500952  0.002278855711569211
0.24  -0.8278195513038263  -0.008610935788159349
0.241  -0.8263244877797664  -0.019464955560607886
0.242  -0.824683882880788  -0.03028119773345217
0.243  -0.8228984936421047  -0.041057669994361105
0.244  -0.8209691048888446  -0.05179239398948126
0.245  -0.8188965289878785  -0.062483405717664565
0.246  -0.8166816055939642  -0.0731287559203533
0.247  -0.8143252013902974  -0.08372651046704163
0.248  -0.8118282098235312  -0.0942747507362304
0.249  -0.8091915508333529  -0.10477157399179607
0.25  -0.8064161705766918  -0.11521509375469481
0.251  -0.8035030411466414  -0.12560344016992359
0.252  -0.8004531602861733  -0.1359347603686638
0.253  -0.7972675510967298  -0.14620721882553034
0.254  -0.7939472617417755  -0.15641899771085546
0.255  -0.7904933651453941  -0.16656829723793382
0.256  -0.7869069586860163  -0.17665333600515862
0.257  -0.7831891638853629  -0.186672351332981
0.258  -0.7793411260926946  -0.19662359959562364
0.259  -0.7753640141644546  -0.20650535654748384
0.26  -0.7712590201393931  -0.2163159176441611
0.261  -0.7670273589092662  -0.2260535983580462
0.262  -0.762670267885199  -0.23571673448841093
0.263  -0.7581890066598054  -0.24530368246593795
0.264  -0.753584856665157  -0.25481281965163277
0.265  -0.748859120826697  -0.2642425446300612
0.266  -0.7440131232131906  -0.27359127749685636
0.267  -0.7390482086828096  -0.2828574601404436
0.268  -0.7339657425254466  -0.29203955651792873
0.269  -0.7287671101013542  -0.30113605292510115
0.27  -0.7234537164762092  -0.3101454582605021
0.271  -0.7180269860526965  -0.3190663042835115
0.272  -0.7124883621987158  -0.3278971458664075
0.273  -0.7068393068723039  -0.3366365612403547
0.274  -0.7010813002433804  -0.34528315223527944
0.275  -0.6952158403124096  -0.353835544513591
0.276  -0.6892444425260844  -0.3622923877977099
0.277  -0.6831686393901306  -0.37065235609136615
0.278  -0.6769899800793358  -0.3789141478946321
0.279  -0.6707100300449023  -0.3870764864126554
0.28  -0.6643303706192301  -0.39513811975806057
0.281  -0.6578525986182275  -0.40309782114698756
0.28200000000000003  -0.6512783259412596  -0.4109543890887401
0.28300000000000003  -0.6446091791688309  -0.4187066475690143
0.28400000000000003  -0.6378467991581124  -0.4263534462266849
0.28500000000000003  -0.6309928406364127  -0.43389366052412304
0.28600000000000003  -0.6240489717926988  -0.44132619191102435
0.28700000000000003  -0.6170168738672719  -0.4486499679817275
0.28800000000000003  -0.6098982407397022  -0.45586394262600227
0.289  -0.6026947785151282  -0.46296709617329496
0.29  -0.5954082051090217  -0.46995843553040945
0.291  -0.5880402498305314  -0.47683699431261517
0.292  -0.5805926529645012  -0.48360183296816905
0.293  -0.5730671653522742  -0.4902520388962394
0.294  -0.565465547971386  -0.49678672655822437
0.295  -0.5577895715142511  -0.5032050375824605
0.296  -0.5500410159659485  -0.509506140862311
0.297  -0.5422216701812118  -0.5156892326476361
0.298  -0.5343333314607283  -0.5217535366296384
0.299  -0.5263778051268506  -0.5276983040190875
0.3  -0.5183569040988272  -0.5335228136179234
0.301  -0.5102724484676545  -0.5392263718842406
0.302  -0.5021262650706565  -0.5448083129906619
0.303  -0.4939201870658937  -0.5502679988761031
0.304  -0.4856560535065067  -0.5556048192909425
0.305  -0.4773357089150963  -0.5608181918355992
0.306  -0.46896100285824477  -0.5659075619925372
0.307  -0.46053378952127955  -0.570872403151704
0.308  -0.45205592728338195  -0.5757122166294212
0.309  -0.44352927829314287  -0.5804265316807425
0.31  -0.434955708044667  -0.5850149055052966
0.311  -0.42633708495432754  -0.5894769232466346
0.312  -0.41767527993826814  -0.5938121979851049
0.313  -0.40897216599075864  -0.5980203707242744
0.314  -0.4002296177634965  -0.6021011103709246
0.315  -0.39144951114595894  -0.6060541137086451
0.316  -0.3826337228469018  -0.609879105365054
0.317  -0.37378412997710125  -0.6135758377726709
0.318  -0.3649026096334394  -0.6171440911234787
0.319  -0.355991038484426  -0.6205836733171988
0.32  -0.3470512923572555  -0.6238944199033188
0.321  -0.33808524582649285  -0.627076194016904
0.322  -0.32909477180448266  -0.6301288863082319
0.323  -0.32008174113357585  -0.6330524148662846
0.324  -0.3110480221802662  -0.6358467251361392
0.325  -0.3019954804313294  -0.6385117898302988
0.326  -0.29292597809205567  -0.6410476088340027
0.327  -0.2838413736866667  -0.6434542091045619
0.328  -0.2747435216610055  -0.6457316445647623
0.329  -0.2656342719875903  -0.6478799959903858
0.33  -0.2565154697731178  -0.6498993708918896
0.331  -0.24738895486850435  -0.6517899033903007
0.332  -0.23825656148155067  -0.65355175408737
0.333  -0.22912011779231534  -0.6551851099300388
0.334  -0.21998144557128071  -0.6566901840692712
0.335  -0.21084235980039556  -0.6580672157133067
0.336  -0.20170466829707517  -0.6593164699753846
0.337  -0.1925701713412413  -0.660438237716001
0.338  -0.183440661305481  -0.6614328353797536
0.339  -0.17431792228840443  -0.6623006048268327
0.34  -0.16520372975127867  -0.6630419131592206
0.341  -0.15609985015801497  -0.6636571525416554
0.342  -0.1470080406185849  -0.6641467400174288
0.343  -0.13793004853594026  -0.6645111173190745
0.34400000000000003  -0.12886761125650997  -0.6647507506740133
0.34500000000000003  -0.11982245572434642  -0.6648661306052238
0.34600000000000003  -0.11079629813899255  -0.664857771726999
0.34700000000000003  -0.1017908436171394  -0.6647262125358621
0.34800000000000003  -0.09280778585814257  -0.6644720151967052
0.34900000000000003  -0.0838488068134664  -0.6640957653242243
0.35000000000000003  -0.0749155763601205  -0.6635980717597176
0.35100000000000003  -0.06600975197815459  -0.6629795663433203
0.352  -0.05713297843227592  -0.662240903681747
0.353  -0.04828688745765047  -0.661382760911617
0.354  -0.03947309744995067  -0.6604058374584323
0.355  -0.03069321315970815  -0.659310854791288
0.356  -0.021948825391031483  -0.6580985561733872
0.357  -0.013241510704745496  -0.6567697064084371
0.358  -0.004572831126008185  -0.655325091583006
0.359  0.0040556661435398045  -0.6537655188049154
0.36  0.012642449009040045  -0.6520918159377503
0.361  0.021186000761043284  -0.6503048313315624
0.362  0.029684820349448627  -0.6484054335498488
0.363  0.038137422652704416  -0.6463945110928888
0.364  0.04654233874222444  -0.6442729721175138
0.365  0.05489811614197202  -0.6420417441534017
0.366  0.06320331908316727  -0.6397017738159673
0.367  0.07145652875407371  -0.6372540265159422
0.368  0.07965634354482248  -0.63469948616572
0.369  0.0878013792872328  -0.6320391548825571
0.37  0.09589026948958923  -0.6292740526887067
0.371  0.10392166556633856  -0.6264052172085799
0.372  0.11189423706266871  -0.6234337033630106
0.373  0.11980667187393582  -0.6203605830607178
0.374  0.12765767645990408  -0.6171869448870454
0.375  0.13544597605376849  -0.613913893790071
0.376  0.1431703148659272  -0.610542550764168
0.377  0.15082945628247668  -0.6070740525311087
0.378  0.15842218305839953  -0.6035095512187995
0.379  0.16594729750542067  -0.5998502140377294
0.38  0.17340362167450502  -0.5960972229552274
0.381  0.18078999753297464  -0.5922517743676116
0.382  0.1881052871362233  -0.5883150787703226
0.383  0.19534837279400652  -0.5842883604261286
0.384  0.20251815723128963  -0.5801728570314882
0.385  0.2096135637436356  -0.5759698193811674
0.386  0.2166335363471161  -0.571680511031191
0.387  0.22357703992273176  -0.5673062079602254
0.388  0.23044306035532808  -0.5628481982294775
0.389  0.23723060466699517  -0.5583077816412012
0.39  0.24393870114494118  -0.5536862693958995
0.391  0.2505663994638303  -0.5489849837483133
0.392  0.25711277080257827  -0.5442052576622846
0.393  0.2635769079555987  -0.539348434464585
0.394  0.2699579254384969  -0.5344158674977965
0.395  0.2762549595882073  -0.5294089197723365
0.396  0.28246716865757154  -0.5243289636177143
0.397  0.28859373290436124  -0.5191773803331063
0.398  0.29463385467473985  -0.5139555598373432
