t   Re(c(t))    Im(c(t))
0.0  1.0  0.0
0.001  0.9932430390592271  0.11384799162711096
0.002  0.9730775361371343  0.22603997613876436
0.003  0.9398177634266853  0.33494751639327786
0.004  0.8939813200441705  0.43899679696311705
0.005  0.8362799794375868  0.5366946502881187
0.006  0.7676071312529003  0.6266530713942937
0.007  0.6890220663699589  0.7076117669650006
0.008  0.6017314153762295  0.778458325580059
0.009000000000000001  0.5070681054943705  0.8382456454139897
0.01  0.40646824775018164  0.8862063124682019
0.011  0.3014464039842976  0.92176368520268
0.012  0.1935697114121585  0.9445395088001137
0.013000000000000001  0.08443136029178851  0.9543579527155853
0.014  -0.02437607242078277  0.9512460370579972
0.015  -0.1312869338049135  0.9354304851188184
0.016  -0.23478796410413866  0.907331109434733
0.017  -0.3334424618213929  0.8675509056285824
0.018000000000000002  -0.42591271518821616  0.8168630904984457
0.019  -0.5109803116583217  0.7561953771272004
0.02  -0.5875639856800964  0.6866118290314913
0.021  -0.6547347197722194  0.6092926766090622
0.022  -0.7117278735464591  0.5255125116280968
0.023  -0.7579521783913267  0.43661729869873994
0.024  -0.7929955005993827  0.34400065626691356
0.025  -0.8166273413255687  0.24907986359228484
0.026000000000000002  -0.8287981064616186  0.15327204455790816
0.027  -0.8296352419159378  0.05797096436554421
0.028  -0.819436388600574  -0.035475148244198326
0.029  -0.7986597654648683  -0.1257843719039295
0.03  -0.7679120371386209  -0.21176011359872968
0.031  -0.7279339642782153  -0.29230808087432847
0.032  -0.6795841688480406  -0.36645095547384504
0.033  -0.6238213728074933  -0.43334057123968117
0.034  -0.5616854866978406  -0.4922674540981189
0.035  -0.4942779343171734  -0.5426676380023551
0.036000000000000004  -0.4227416011127801  -0.5841267265972755
0.037  -0.34824078737010483  -0.6163812248862853
0.038  -0.2719415331692534  -0.6393172172018611
0.039  -0.1949926610018781  -0.6529665162806522
0.04  -0.11850785461628088  -0.6575004523137611
0.041  -0.043549059922284965  -0.6532215097121195
0.042  0.028888543436483994  -0.6405530523732693
0.043000000000000003  0.09788979196050723  -0.6200274049943626
0.044  0.1626308449437938  -0.5922725781432946
0.045  0.22238842786462085  -0.557997938233838
0.046  0.27654693756098386  -0.5179791302673062
0.047  0.3246033787505796  -0.4730425613687251
0.048  0.36617014449093904  -0.4240497470648177
0.049  0.40097569388466836  -0.3718818103547295
0.05  0.4288632179655017  -0.317424406451666
0.051000000000000004  0.44978741860753557  -0.2615533242546769
0.052000000000000005  0.4638095549533593  -0.20512098984630397
0.053  0.4710909368501807  -0.14894406835653537
0.054  0.4718850648353276  -0.09379232917023503
0.055  0.4665286311678066  -0.04037890647859396
0.056  0.4554316062269618  0.010647946628372651
0.057  0.43906663937453616  0.05871154620131419
0.058  0.41795800329170707  0.10331187649453528
0.059000000000000004  0.39267030614356263  0.1440291008492767
0.06  0.3637971870598038  0.1805255151929582
0.061  0.3319501977924749  0.21254600252740144
0.062  0.2977480575154136  0.23991707150488406
0.063  0.2618064491030255  0.26254458372494943
0.064  0.22472850443098583  0.2804102924788514
0.065  0.18709610385287018  0.29356733016563513
0.066  0.14946209159615803  0.30213479243666486
0.067  0.11234348494446023  0.30629157431122467
0.068  0.0762157312587782  0.3062696171406444
0.069  0.04150804363004363  0.30234672554926173
0.07  0.008599823692815589  0.2948391105767307
0.07100000000000001  -0.02218184074260429  0.2840938094696072
0.07200000000000001  -0.05056363473195036  0.2704811242450633
0.073  -0.07632648055983643  0.2543872106321798
0.074  -0.09930507102259024  0.23620693666413659
0.075  -0.11938654783354713  0.2163371164366021
0.076  -0.13650841152526585  0.19517020975409757
0.077  -0.1506557569391954  0.17308856294005034
0.078  -0.16185793368396342  0.15045925035507468
0.079  -0.1701847338891044  0.12762956049655744
0.08  -0.17574221030620585  0.10492315525709328
0.081  -0.17866822647641595  0.08263691628249216
0.082  -0.17912783748530056  0.0610384786376796
0.083  -0.1773085949805598  0.040364439366994374
0.084  -0.1734158638697353  0.020819217189446383
0.085  -0.16766823068887124  0.0025745296235933027
0.08600000000000001  -0.16029307528837466  -0.014230554625419601
0.08700000000000001  -0.1515223684664928  -0.029489037117470092
0.088  -0.14158874873413793  -0.04312493946458188
0.089  -0.13072192174562466  -0.05509183983401198
0.09  -0.11914541629068656  -0.06537105697359434
0.091  -0.10707372130715659  -0.07396954361441864
0.092  -0.09470981931243873  -0.08091755088015518
0.093  -0.08224312311331389  -0.08626612395207918
0.094  -0.06984781476103395  -0.09008448683742151
0.095  -0.05768157857032398  -0.09245737080849285
0.096  -0.04588471369024001  -0.09348233706859249
0.097  -0.03457960625113412  -0.09326713960688095
0.098  -0.023870536541695866  -0.09192716917498156
0.099  -0.013843792998400342  -0.08958301399483638
0.1  -0.004568062002656342  -0.08635816732435622
0.101  0.0039049394525665056  -0.0823769064889126
0.10200000000000001  0.011539622290596173  -0.07776236254539545
0.10300000000000001  0.018315509513290255  -0.07263479448120168
0.10400000000000001  0.024226080131277233  -0.06711007684921756
0.105  0.02927750608229997  -0.06129840507349226
0.106  0.03348731391667628  -0.05530321838648013
0.107  0.03688300114266673  -0.04922033652101723
0.108  0.03950063487614096  -0.04313730290863471
0.109  0.04138345791006144  -0.03713292424771942
0.11  0.04258052458876997  -0.03127699390597676
0.111  0.043145386014401516  -0.02563018470659197
0.112  0.04313484119708937  -0.020244095202040714
0.113  0.042607767849789445  -0.015161432541249546
0.114  0.041624043678416656  -0.010416314455687371
0.115  0.04024356627705685  -0.006034672693591821
0.116  0.038525377147210264  -0.002034740380547391
0.117  0.036526892952658964  0.0015723937620525685
0.11800000000000001  0.034303244923498594  0.004782180694124347
0.11900000000000001  0.03190672535285806  0.007595971249455928
0.12  0.02938633839984335  0.010020355553955616
0.121  0.02678745092808841  0.012066494735435106
0.122  0.024151537871163208  0.01374945665079444
0.123  0.021516015619229396  0.015087565957461253
0.124  0.018914156156721824  0.016101777431348406
0.125  0.016375074135872834  0.01681508001346289
0.126  0.013923778730112708  0.017251937678015986
0.127  0.0115812819570753  0.01743777187907709
0.128  0.009364755173847805  0.017398489069340894
0.129  0.007287725606967685  0.017160055608583167
0.13  0.005360305065788428  0.016748121302451194
0.131  0.0035894433795431754  0.016187691842577897
0.132  0.0019791995755293543  0.015502849561720697
0.133  0.0005310243589321825  0.014716521174956984
0.134  -0.0007559519543710727  0.013850290549651485
0.135  -0.0018846312790451833  0.012924254030463534
0.136  -0.0028596639655379804  0.011956915436740653
0.137  -0.0036871733205744886  0.010965117542347151
0.138  -0.004374491765796208  0.009964006635185187
0.139  -0.004929911349743354  0.00896702662732895
0.14  -0.005362450749914001  0.007985939138124785
0.14100000000000001  -0.005681640359300518  0.00703086599274146
0.14200000000000002  -0.00589732655090493  0.0061103506582676735
0.14300000000000002  -0.006019495758085876  0.005231435269391085
0.14400000000000002  -0.006058118600636062  0.004399750067027994
0.145  -0.006023013927436351  0.0036196122774689483
0.146  -0.005923732336495301  0.002894131688620864
0.147  -0.005769458471319478  0.0022253204263232807
0.148  -0.005568931177227446  0.001614204690720244
0.149  -0.0053303804301078435  0.001060936474210152
0.15  -0.005061479820397918  0.0005649035432478361
0.151  -0.00476931328348488  0.0001248362216386329
0.152  -0.00446035471079861  -0.0002610902409194668
0.153  -0.004140459049881517  -0.0005951586975801204
0.154  -0.0038148635029343564  -0.0008800192941068635
0.155  -0.0034881974579914032  -0.0011186053813310854
0.156  -0.0031644998313067984  -0.0013140565280152288
0.157  -0.002847242560213074  -0.0014696488466819702
0.158  -0.0025393590593035796  -0.001588732698974738
0.159  -0.0022432765361905574  -0.0016746777201869071
0.16  -0.0019609511534498885  -0.0017308249943042602
0.161  -0.0016939051181087497  -0.001760446120537972
0.162  -0.0014432648768781696  -0.0017667088389423892
0.163  -0.001209799692275948  -0.001752648825188985
0.164  -0.000993959970119632  -0.0017211472216563236
0.165  -0.0007959148011518632  -0.0016749134423574858
0.166  -0.0006155882676241982  -0.0016164727714671854
0.167  -0.0004526941485819777  -0.0015481582679344394
0.168  -0.000306768734670094  -0.0014721064904779852
0.169  -0.0001772015340272053  -0.0013902565668097522
0.17  -6.326371495561048e-05  -0.0013043521469261446
0.171  3.5865811591824504e-05  -0.0012159458015256796
0.17200000000000001  0.00012107671606997075  -0.0011264054519228351
0.17300000000000001  0.00019330598334254767  -0.0010369224461944826
0.17400000000000002  0.0002535190194616716  -0.0009485209267792917
0.17500000000000002  0.0003026930655952465  -0.000862068166513115
0.176  0.00034180282672707915  -0.0007782855823993272
0.177  0.00037180820231847355  -0.0006977601686406489
0.178  0.00039364399053729433  -0.000620956122072981
0.179  0.00040821142647136187  -0.0005482264636926632
0.18  0.0004163714074656066  -0.0004798244891044621
0.181  0.00041893925489381835  -0.0004159149081596687
0.182  0.0004166808608303903  -0.0003565845595989338
0.183  0.0004103100697877546  -0.0003018526100224813
0.184  0.00040048714951246577  -0.00025168016790089485
0.185  0.00038781821039600135  -0.00020597926257789808
0.186  0.0003728554399964486  -0.0001646211553165953
0.187  0.0003560980271556115  -0.00012744396444501106
0.188  0.00033799365893777763  -9.425959964338935e-05
0.189  0.0003189404828505412  -6.486001148344577e-05
0.19  0.000299289436305014  -3.902277159256243e-05
0.191  0.0002793468548340645  -1.6516006406310804e-05
0.192  0.0002593772800479018  2.8972864740147943e-06
0.193  0.0002396063975257727  1.9455505642806443e-05
0.194  0.0002202240437070008  3.3395259885219594e-05
0.195  0.00020138722926881132  4.494868942032244e-05
0.196  0.00018322313439150643  5.434125367620427e-05
0.197  0.0001658320386686722  6.178994438785133e-05
0.198  0.00014929015519026955  6.750188302827225e-05
0.199  0.00013365234449301398  7.167326239716822e-05
0.2  0.00011895468963443642  7.448859349168121e-05
0.201  0.00010521691861086621  7.612022047201015e-05
0.202  9.24446647222473e-05  7.672806851959221e-05
0.203  8.063155931272333e-05  7.645959159060755e-05
0.20400000000000001  6.976115461263442e-05  7.54498894173179e-05
0.20500000000000002  5.980867721078374e-05  7.382196554924062e-05
0.20600000000000002  5.074261502867111e-05  7.168710069613376e-05
0.20700000000000002  4.2526142590785505e-05  6.914531809518652e-05
0.20800000000000002  3.511839092440786e-05  6.628592003759904e-05
0.209  2.8475569617327997e-05  6.31880770224864e-05
0.21  2.2551949450237382e-05  5.992145323852971e-05
0.211  1.7300714638698316e-05  5.654685418513565e-05
0.212  1.2674694102756546e-05  5.311688422251359e-05
0.213  8.62698136279489e-06  4.9676603676213195e-05
0.214  5.11145266890882e-06  4.6264176809909944e-05
0.215  2.083192837445932e-06  4.291150351951072e-05
0.216  -5.011619839737974e-07  3.9644828993386424e-05
0.217  -2.6831557472496008e-06  3.648532682949064e-05
0.218  -4.502309672788444e-06  3.344965220684135e-05
0.219  -5.9959771727024305e-06  3.0550462682175136e-05
0.22  -7.1992490541648494e-06  2.7796905029014692e-05
0.221  -8.144902064390394e-06  2.519506726639445e-05
0.222  -8.863384384159508e-06  2.2748395643820406e-05
0.223  -9.38283222464579e-06  2.0458076869895753e-05
0.224  -9.729112222712232e-06  1.8323386300587205e-05
0.225  -9.925884855867219e-06  1.6342003149706133e-05
0.226  -9.994684604591429e-06  1.451029405830005e-05
0.227  -9.955013072553845e-06  1.2823566567136066e-05
0.228  -9.82444173029275e-06  1.1276294188085658e-05
0.229  -9.618721374304768e-06  9.862314871407878e-06
0.23  -9.35189578864255e-06  8.575004725302093e-06
0.231  -9.036417460598536e-06  7.407428865693686e-06
0.232  -8.683263534449318e-06  6.352471267450729e-06
0.233  -8.302050489186479e-06  5.402945454523554e-06
0.234  -7.901146297934878e-06  4.551687813798823e-06
0.23500000000000001  -7.487779069817515e-06  3.7916352483689585e-06
0.23600000000000002  -7.068141390292067e-06  3.115888804289654e-06
0.23700000000000002  -6.6474897653762905e-06  2.5177648149716653e-06
0.23800000000000002  -6.230238741134877e-06  1.990835010943124e-06
0.23900000000000002  -5.820049412107801e-06  1.528956942958842e-06
0.24  -5.4199121551536295e-06  1.1262959648619192e-06
0.241  -5.032223528958269e-06  7.77339921656368e-07
0.242  -4.658857365309742e-06  4.76907588660326e-07
0.243  -4.301230150629835e-06  2.2015181075590303e-07
0.244  -3.96036085293594e-06  2.558197845654724e-09
0.245  -3.6369253952915947e-06  -1.8005985583983342e-07
0.246  -3.3313060122876862e-06  -3.315691451443078e-07
0.247  -3.0436357507097766e-06  -4.555270148519578e-07
0.248  -2.7738383940475073e-06  -5.551935757838466e-07
0.249  -2.5216641010439204e-06  -6.33545311828345e-07
0.25  -2.286721053497373e-06  -6.932896754460223e-07
0.251  -2.0685034085775052e-06  -7.368803260180449e-07
0.252  -1.8664158473407692e-06  -7.665327164540431e-07
0.253  -1.6797950040149936e-06  -7.842397806723365e-07
0.254  -1.507928050922698e-06  -7.917875151381798e-07
0.255  -1.3500687022556426e-06  -7.90770285549617e-07
0.256  -1.2054508871764344e-06  -7.826057219935849e-07
0.257  -1.0733003283430162e-06  -7.685490950431714e-07
0.258  -9.52844247275839e-07  -7.497070903726014e-07
0.259  -8.433194031450533e-07  -7.270509214450428e-07
0.26  -7.439786562495804e-07  -7.014287382777725e-07
0.261  -6.540962324504964e-07  -6.735773067573997e-07
0.262  -5.72971850545781e-07  -6.441329463584313e-07
0.263  -4.999338599842388e-07  -6.136417253273459e-07
0.264  -4.3434152312535153e-07  -5.825689218469991e-07
0.265  -3.7558656312475293e-07  -5.513077671745067e-07
0.266  -3.230940864588987e-07  -5.201874928670716e-07
0.267  -2.7632297760631166e-07  -4.894807087856813e-07
0.268  -2.347658528813831e-07  -4.5941014213212575e-07
0.269  -1.9794865028816137e-07  -4.301547701349088e-07
0.27  -1.6542992354500281e-07  -4.018553808654029e-07
0.271  -1.3679989959679126e-07  -3.7461959730961073e-07
0.272  -1.1167935177521709e-07  -3.4852640022444867e-07
0.273  -8.971833354742872e-08  -3.2363018519908803e-07
0.274  -7.059481164738814e-08  -2.9996438852156083e-07
0.275  -5.401323172053179e-08  -2.7754471569357444e-07
0.276  -3.9703044590698115e-08  -2.563720050223511e-07
0.277  -2.7417216785696823e-08  -2.3643475767338654e-07
0.278  -1.693074492010334e-08  -2.177113635417975e-07
0.279  -8.039190038000697e-09  -2.0017205115262425e-07
0.28  -5.572449753481127e-10  -1.8378058781559736e-07
0.281  5.682654986626511e-09  -1.6849575461368692e-07
0.28200000000000003  1.0831670100571032e-08  -1.5427261917955856e-07
0.28300000000000003  1.5025836915365996e-08  -1.4106362745924787e-07
0.28400000000000003  1.838728751903914e-08  -1.2881953397469898e-07
0.28500000000000003  2.102540438342275e-08  -1.1749018861929873e-07
0.28600000000000003  2.303790958443352e-08  -1.0702519645825421e-07
0.28700000000000003  2.4511887544485628e-08  -9.73744654866975e-08
0.28800000000000003  2.5524741932171298e-08  -8.848865604309472e-08
0.289  2.6145087686374688e-08  -8.031954421594285e-08
0.29  2.6433579696502935e-08  -7.282031031657046e-08
0.291  2.6443680390533317e-08  -6.594576254560664e-08
0.292  2.622236846690587e-08  -5.965250475400287e-08
0.293  2.5810791477464652e-08  -5.389905637741404e-08
0.294  2.524486500114614e-08  -4.86459315930373e-08
0.295  2.455582146296021e-08  -4.385568412336973e-08
0.296  2.3770711413177856e-08  -3.9492923158839185e-08
0.297  2.291286035882417e-08  -3.5524305447347516e-08
0.298  2.2002283969682665e-08  -3.191850771745027e-08
0.299  2.1056064693765863e-08  -2.8646183269106165e-08
0.3  2.0088692420051804e-08  -2.5679906042263866e-08
0.301  1.9112372080330853e-08  -2.299410484620158e-08
0.302  1.8137300597456782e-08  -2.0564990314123548e-08
0.303  1.7171915762563552e-08  -1.8370476563958948e-08
0.304  1.6223119317284117e-08  -1.6390099364156403e-08
0.305  1.529647652628748e-08  -1.460493228779791e-08
0.306  1.4396394222407527e-08  -1.2997502041345263e-08
0.307  1.3526279256495671e-08  -1.1551704161864505e-08
0.308  1.2688679297529973e-08  -1.0252719661218035e-08
0.309  1.1885407420448017e-08  -9.086933522742255e-09
0.31  1.1117652263641988e-08  -8.041855470067507e-09
0.311  1.038607505170811e-08  -7.106043463755379e-09
0.312  9.69089480031856e-09  -6.26903022621093e-09
0.313  9.03196303944278e-09  -5.52125299829108e-09
0.314  8.408828951135592e-09  -4.85398675571201e-09
0.315  7.820796117740714e-09  -4.259280836526123e-09
0.316  7.266971703789824e-09  -3.7298991357634866e-09
0.317  6.746308967048369e-09  -3.2592637717465586e-09
0.318  6.257643710837579e-09  -2.8414022318429087e-09
0.319  5.799725615679693e-09  -2.4708979100085016e-09
0.32  5.371244821614641e-09  -2.1428438752051545e-09
0.321  4.970854421655392e-09  -1.852799903786351e-09
0.322  4.597189425826735e-09  -1.59675245570457e-09
0.323  4.248882484639353e-09  -1.371077619442688e-09
0.324  3.924576934484419e-09  -1.1725067763228377e-09
0.325  3.622937442721783e-09  -9.980949424790298e-10
0.326  3.3426585543799615e-09  -8.451915015258706e-10
0.327  3.0824714540056267e-09  -7.11413314036729e-10
0.328  2.8411492388666e-09  -5.946199725771629e-10
0.329  2.6175107848789356e-09  -4.928911361547136e-10
0.33  2.4104235654796015e-09  -4.045057166105536e-10
0.331  2.218805506526399e-09  -3.2792283233946306e-10
0.332  2.041625991226612e-09  -2.61764464530779e-10
0.333  1.877906270669365e-09  -2.0479956532736674e-10
0.334  1.7267192642545166e-09  -1.559295756052048e-10
0.335  1.5871889353057413e-09  -1.1417531833391578e-10
0.336  1.4584892699409846e-09  -7.866498320778317e-11
0.337  1.3398430409544815e-09  -4.8623301637114304e-11
0.338  1.2305201979869626e-09  -2.336163868547173e-11
0.339  1.1298362812563664e-09  -2.2691037222957194e-12
0.34  1.0371505154694562e-09  1.5195528212611215e-11
0.341  9.518639874307808e-10  2.951113990786016e-11
0.342  8.734176225144637e-10  4.1100875686519144e-11
0.343  8.01290234770053e-10  5.0338090753886316e-11
0.34400000000000003  7.349965597930507e-10  5.755170121578596e-11
0.34500000000000003  6.740852957444602e-10  6.303102770820927e-11
0.34600000000000003  6.181371477444374e-10  6.703010013961687e-11
0.34700000000000003  5.667629467203257e-10  6.977164755962739e-11
0.34800000000000003  5.196018833591822e-10  7.14505247937387e-11
0.34900000000000003  4.76319650913839e-10  7.223685480905876e-11
0.35000000000000003  4.3660685142176164e-10  7.22789143525022e-11
0.35100000000000003  4.001773043444245e-10  7.170556865409316e-11
0.352  3.667665030488842e-10  7.062855691395926e-11
0.353  3.361301855641173e-10  6.914452217391707e-11
0.354  3.0804289193486433e-10  6.733675931102926e-11
0.355  2.822966877328596e-10  6.527684342111712e-11
0.356  2.5869988639723017e-10  6.302605771672304e-11
0.357  2.370759184441772e-10  6.063663629461642e-11
0.358  2.172621322771573e-10  5.8152905533277516e-11
0.359  1.9910892083038428e-10  5.5612266224263927e-11
0.36  1.8247861242447088e-10  5.3046106152220634e-11
0.361  1.6724462601015406e-10  5.0480545140232906e-11
0.362  1.5329064457032462e-10  4.793713117818654e-11
0.363  1.4050977438949117e-10  4.543348445814979e-11
0.364  1.2880386636835767e-10  4.2983826930955967e-11
0.365  1.1808283511753622e-10  4.059939665172274e-11
0.366  1.0826396717826058e-10  3.8288958206257774e-11
