t   Re(c(t))    Im(c(t))
0.0  1.0  0.0
0.001  0.9999996250002735  0.0004999996875002453
0.002  0.9999985000043747  0.0009999975000078768
0.003  0.9999966250221486  0.001499991562559824
0.004  0.9999940000699992  0.001999980000252013
0.005  0.999990625170895  0.002499960938269067
0.006  0.9999865003543648  0.0029999325019136117
0.007  0.9999816256564975  0.0034998928166359647
0.008  0.9999760011199416  0.0039998400080636
0.009000000000000001  0.9999696267939044  0.004499772202030625
0.01  0.9999625027341502  0.004999687524607304
0.011  0.9999546290029996  0.0054995841021295904
0.012  0.9999460056693273  0.0059994600612285325
0.013000000000000001  0.9999366328085607  0.006499313528859786
0.014  0.9999265105026777  0.0069991426323331
0.015  0.9999156388402055  0.007498945499341721
0.016  0.9999040179162173  0.00799872025799185
0.017  0.999891647832331  0.008498465036832062
0.018000000000000002  0.9998785286967058  0.008998177964882738
0.019  0.9998646606240401  0.009497857171665385
0.02  0.9998500437355688  0.009997500787232043
0.021  0.9998346781590594  0.010497106942194677
0.022  0.9998185640288102  0.010996673767754423
0.023  0.9998017014856453  0.011496199395730983
0.024  0.999784090676913  0.011995681958591846
0.025  0.99976573175648  0.012495119589481553
0.026000000000000002  0.9997466248847307  0.012994510422251021
0.027  0.9997267702285587  0.01349385259148667
0.028  0.9997061679613684  0.01399314423253967
0.029  0.9996848182630647  0.014492383481555028
0.03  0.9996627213200533  0.014991568475500747
0.031  0.9996398773252344  0.015490697352197018
0.032  0.9996162864779967  0.015989768250345225
0.033  0.9995919489842143  0.016488779309556948
0.034  0.9995668650562415  0.016987728670383062
0.035  0.9995410349129055  0.017486614474342597
0.036000000000000004  0.9995144587795042  0.017985434863951818
0.037  0.9994871368877979  0.01848418798275303
0.038  0.9994590694760052  0.018982871975343492
0.039  0.9994302567887966  0.019481484987404193
0.04  0.9994006990772877  0.019980025165728763
0.041  0.9993703965990351  0.020478490658252108
0.042  0.9993393496180277  0.020976879614079208
0.043000000000000003  0.9993075584046821  0.021475190183513765
0.044  0.9992750232358344  0.02197342051808672
0.045  0.9992417443947348  0.022471568770585065
0.046  0.9992077221710393  0.02296963309508019
0.047  0.9991729568608039  0.023467611646956512
0.048  0.9991374487664763  0.023965502582939818
0.049  0.9991011981968893  0.024463304061125717
0.05  0.9990642054672518  0.024961014241008023
0.051000000000000004  0.9990264708991436  0.025458631283507005
0.052000000000000005  0.9989879948205047  0.025956153350997657
0.053  0.9989487775656296  0.026453578607337942
0.054  0.9989088194751569  0.02695090521789689
0.055  0.9988681208960628  0.027448131349582683
0.056  0.9988266821816524  0.0279452551708708
0.057  0.9987845036915499  0.02844227485183189
0.058  0.9987415857916905  0.02893918856415977
0.059000000000000004  0.9986979288543119  0.029435994481199237
0.06  0.9986535332579447  0.029932690777973944
0.061  0.998608399387403  0.030429275631214184
0.062  0.9985625276337751  0.030925747219384486
0.063  0.9985159183944149  0.03142210372271131
0.064  0.9984685720729303  0.03191834332321062
0.065  0.9984204890791759  0.03241446420471541
0.066  0.9983716698292402  0.03291046455290314
0.067  0.9983221147454375  0.0334063425553231
0.068  0.9982718242562977  0.03390209640142369
0.069  0.9982207987965537  0.034397724282579804
0.07  0.9981690388071334  0.03489322439211988
0.07100000000000001  0.9981165447351478  0.035388594925353074
0.07200000000000001  0.9980633170338801  0.03588383407959631
0.073  0.9980093561627744  0.03637894005420123
0.074  0.997954662587426  0.036873911050581125
0.075  0.997899236779568  0.0373687452722377
0.076  0.9978430792170626  0.037863440924787946
0.077  0.997786190383886  0.038357996215990765
0.078  0.9977285707701203  0.038852409355773526
0.079  0.9976702208719388  0.0393466785562587
0.08  0.9976111411915962  0.039840802031790294
0.081  0.9975513322374149  0.04033477799896019
0.082  0.9974907945237729  0.0408286046766345
0.083  0.997429528571093  0.04132228028597976
0.084  0.9973675349058277  0.04181580305048904
0.085  0.9973048140604492  0.042309171196008126
0.08600000000000001  0.9972413665734342  0.042802382950761386
0.08700000000000001  0.997177192989253  0.04329543654537773
0.088  0.9971122938583543  0.043788330212916435
0.089  0.9970466697371538  0.044281062188892814
0.09  0.9969803211880204  0.04477363071130396
0.091  0.9969132487792618  0.04526603402065423
0.092  0.9968454530851117  0.04575827035998077
0.093  0.9967769346857168  0.04625033797487889
0.094  0.9967076941671208  0.046742235113527354
0.095  0.9966377321212523  0.04723396002671364
0.096  0.9965670491459092  0.047725510967859
0.097  0.9964956458447468  0.04821688619304354
0.098  0.9964235228272598  0.048708083961031184
0.099  0.9963506807087712  0.0491991025332944
0.1  0.9962771201104152  0.04968994017403914
0.101  0.9962028416591242  0.05018059515022938
0.10200000000000001  0.9961278459876125  0.050671065731611724
0.10300000000000001  0.9960521337343624  0.05116135019073988
0.10400000000000001  0.9959757055436083  0.05165144680299906
0.105  0.9958985620653208  0.05214135384663024
0.106  0.9958207039551935  0.05263106960275435
0.107  0.9957421318746251  0.05312059235539638
0.108  0.995662846490705  0.053609920391509316
0.109  0.9955828484761977  0.05409905200099813
0.11  0.9955021385095254  0.05458798547674346
0.111  0.9954207172747536  0.05507671911462543
0.112  0.9953385854615745  0.055565251213547065
0.113  0.995255743765291  0.05605358007545796
0.114  0.995172192886799  0.056541704005377585
0.115  0.9950879335325729  0.05702962131141848
0.116  0.995002966414647  0.0575173303048096
0.117  0.9949172922506005  0.058004829299919285
0.11800000000000001  0.9948309117635399  0.0584921166142782
0.11900000000000001  0.994743825682082  0.058979190568602305
0.12  0.9946560347403364  0.05946604948681547
0.121  0.9945675396778895  0.059952691696072306
0.122  0.9944783412397866  0.06043911552678049
0.123  0.9943884401765143  0.0609253193126234
0.124  0.9942978372439832  0.061411301390582144
0.125  0.9942065332035102  0.061897060100958225
0.126  0.9941145288218007  0.06238259378739522
0.127  0.9940218248709315  0.06286790079690088
0.128  0.9939284221283318  0.06335297947986919
0.129  0.993834321376766  0.06383782819010195
0.13  0.9937395234043148  0.06432244528483037
0.131  0.993644029004358  0.06480682912473694
0.132  0.9935478389755542  0.06529097807397641
0.133  0.9934509541218255  0.0657748905001975
0.134  0.993353375252336  0.06625856477456378
0.135  0.9932551031814741  0.06674199927177496
0.136  0.9931561387288345  0.06722519237008774
0.137  0.9930564827191981  0.06770814245133676
0.138  0.9929561359825136  0.06819084790095523
0.139  0.9928550993538802  0.0686733071079955
0.14  0.9927533736735246  0.06915551846514982
0.14100000000000001  0.9926509597867851  0.06963748036877036
0.14200000000000002  0.9925478585440901  0.07011919121888972
0.14300000000000002  0.9924440708009407  0.07060064941924092
0.14400000000000002  0.9923395974178897  0.0710818533772775
0.145  0.9922344392605229  0.07156280150419339
0.146  0.9921285971994376  0.07204349221494272
0.147  0.9920220721102256  0.07252392392825935
0.148  0.9919148648734508  0.07300409506667654
0.149  0.9918069763746298  0.07348400405654626
0.15  0.9916984075042136  0.07396364932805854
0.151  0.991589159157565  0.07444302931526062
0.152  0.9914792322349397  0.07492214245607584
0.153  0.991368627641466  0.07540098719232283
0.154  0.9912573462871234  0.07587956196973406
0.155  0.9911453890867238  0.07635786523797461
0.156  0.9910327569598882  0.07683589545066065
0.157  0.9909194508310297  0.0773136510653779
0.158  0.9908054716293293  0.07779113054369992
0.159  0.9906908202887174  0.07826833235120617
0.16  0.990575497747852  0.07874525495750016
0.161  0.9904595049500966  0.07922189683622727
0.162  0.9903428428435016  0.07969825646509249
0.163  0.9902255123807815  0.08017433232587828
0.164  0.9901075145192938  0.0806501229044618
0.165  0.9899888502210182  0.08112562669083244
0.166  0.9898695204525346  0.08160084217910908
0.167  0.9897495261850026  0.08207576786755723
0.168  0.9896288683941391  0.08255040225860596
0.169  0.9895075480601968  0.08302474385886478
0.17  0.9893855661679432  0.0834987911791405
0.171  0.9892629237066384  0.08397254273445365
0.17200000000000001  0.9891396216700135  0.08444599704405502
0.17300000000000001  0.9890156610562475  0.08491915263144217
0.17400000000000002  0.9888910428679486  0.08539200802437531
0.17500000000000002  0.9887657681121284  0.08586456175489371
0.176  0.9886398378001813  0.08633681235933145
0.177  0.9885132529478651  0.08680875837833327
0.178  0.9883860145752726  0.08728039835687028
0.179  0.9882581237068164  0.0877517308442554
0.18  0.9881295813712017  0.08822275439415908
0.181  0.9880003886014057  0.08869346756462418
0.182  0.9878705464346549  0.08916386891808137
0.183  0.9877400559124028  0.08963395702136409
0.184  0.9876089180803076  0.09010373044572337
0.185  0.9874771339882082  0.09057318776684269
0.186  0.9873447046901044  0.09104232756485237
0.187  0.9872116312441306  0.09151114842434438
0.188  0.9870779147125353  0.09197964893438637
0.189  0.9869435561616582  0.09244782768853604
0.19  0.9868085566619063  0.09291568328485514
0.191  0.9866729172877324  0.09338321432592342
0.192  0.9865366391176104  0.09385041941885243
0.193  0.9863997232340138  0.09431729717529921
0.194  0.9862621707233917  0.09478384621147974
0.195  0.9861239826761459  0.09525006514818239
0.196  0.9859851601866082  0.0957159526107812
0.197  0.9858457043530164  0.09618150722924891
0.198  0.9857056162774914  0.09664672763816995
0.199  0.9855648970660145  0.09711161247675339
0.2  0.9854235478284026  0.0975761603888455
0.201  0.9852815696782861  0.09804037002294244
0.202  0.9851389637330854  0.09850424003220254
0.203  0.9849957311139867  0.09896776907445884
0.20400000000000001  0.984851872945919  0.09943095581223095
0.20500000000000002  0.9847073903575304  0.09989379891273736
0.20600000000000002  0.984562284481164  0.10035629704790705
0.20700000000000002  0.9844165564528358  0.10081844889439145
0.20800000000000002  0.9842702074122087  0.10128025313357597
0.209  0.984123238502572  0.10174170845159139
0.21  0.9839756508708144  0.10220281353932531
0.211  0.9838274456674017  0.10266356709243335
0.212  0.9836786240463534  0.1031239678113501
0.213  0.9835291871652182  0.1035840144013001
0.214  0.9833791361850504  0.10404370557230865
0.215  0.9832284722703861  0.10450304003921236
0.216  0.9830771965892192  0.10496201652166988
0.217  0.9829253103129766  0.10542063374417197
0.218  0.9827728146164966  0.10587889043605188
0.219  0.9826197106780014  0.10633678533149547
0.22  0.9824659996790764  0.10679431716955119
0.221  0.9823116828046446  0.10725148469413986
0.222  0.9821567612429425  0.10770828665406414
0.223  0.9820012361854952  0.10816472180301853
0.224  0.9818451088270955  0.10862078889959835
0.225  0.9816883803657754  0.10907648670730928
0.226  0.9815310520027851  0.10953181399457629
0.227  0.9813731249425679  0.10998676953475282
0.228  0.9812146003927353  0.11044135210612949
0.229  0.9810554795640439  0.11089556049194303
0.23  0.9808957636703703  0.11134939348038449
0.231  0.9807354539286876  0.11180284986460808
0.232  0.9805745515590403  0.11225592844273931
0.233  0.9804130577845207  0.11270862801788306
0.234  0.980250973831245  0.1131609473981319
0.23500000000000001  0.9800883009283274  0.11361288539657372
0.23600000000000002  0.9799250403078574  0.1140644408312995
0.23700000000000002  0.9797611932048746  0.11451561252541123
0.23800000000000002  0.9795967608573444  0.11496639930702904
0.23900000000000002  0.9794317445061351  0.11541680000929887
0.24  0.9792661453949908  0.1158668134703994
0.241  0.9790999647705096  0.1163164385335493
0.242  0.9789332038821179  0.11676567404701427
0.243  0.9787658639820468  0.11721451886411359
0.244  0.9785979463253058  0.11766297184322708
0.245  0.9784294521696624  0.11811103184780143
0.246  0.9782603827756131  0.11855869774635666
0.247  0.9780907394063624  0.11900596841249259
0.248  0.9779205233277966  0.11945284272489465
0.249  0.9777497358084603  0.11989931956734008
0.25  0.9775783781195317  0.12034539782870378
0.251  0.9774064515347982  0.12079107640296419
0.252  0.9772339573306322  0.1212363541892086
0.253  0.9770608967859662  0.12168123009163881
0.254  0.9768872711822699  0.12212570301957633
0.255  0.9767130818035229  0.12256977188746786
0.256  0.9765383299361945  0.12301343561489016
0.257  0.9763630168692148  0.12345669312655486
0.258  0.9761871438939549  0.12389954335231362
0.259  0.9760107123041983  0.12434198522716247
0.26  0.9758337233961196  0.12478401769124658
0.261  0.9756561784682591  0.12522563968986458
0.262  0.9754780788214982  0.1256668501734729
0.263  0.9752994257590353  0.12610764809768968
0.264  0.9751202205863619  0.12654803242329923
0.265  0.9749404646112381  0.12698800211625552
0.266  0.9747601591436678  0.12742755614768614
0.267  0.9745793054958757  0.12786669349389598
0.268  0.9743979049822817  0.12830541313637048
0.269  0.9742159589194774  0.12874371406177926
0.27  0.9740334686262022  0.1291815952619792
0.271  0.9738504354233181  0.12961905573401775
0.272  0.9736668606337864  0.13005609448013555
0.273  0.9734827455826429  0.1304927105077698
0.274  0.9732980915969748  0.13092890282955658
0.275  0.9731129000058959  0.13136467046333355
0.276  0.9729271721405214  0.13180001243214254
0.277  0.9727409093339464  0.1322349277642317
0.278  0.9725541129212196  0.13266941549305813
0.279  0.9723667842393207  0.13310347465728933
0.28  0.9721789246271348  0.13353710430080587
0.281  0.9719905354254306  0.13397030347270267
0.28200000000000003  0.9718016179768343  0.13440307122729112
0.28300000000000003  0.9716121736258073  0.13483540662410037
0.28400000000000003  0.9714222037186213  0.13526730872787915
0.28500000000000003  0.9712317096033352  0.1356987766085968
0.28600000000000003  0.9710406926297699  0.13612980934144459
0.28700000000000003  0.9708491541494866  0.13656040600683697
0.28800000000000003  0.9706570955157612  0.13699056569041232
0.289  0.9704645180835604  0.137420287483034
0.29  0.9702714232095208  0.13784957048079097
0.291  0.9700778122519216  0.13827841378499856
0.292  0.9698836865706619  0.13870681650219863
0.293  0.96968904752724  0.13913477774416044
0.294  0.9694938964847252  0.13956229662788044
0.295  0.9692982348077375  0.1399893722755827
0.296  0.9691020638624231  0.14041600381471872
0.297  0.9689053850164302  0.1408421903779676
0.298  0.9687081996388871  0.1412679311032354
0.299  0.968510509100378  0.14169322513365534
0.3  0.9683123147729182  0.14211807161758688
0.301  0.9681136180299332  0.14254246970861525
0.302  0.9679144202462342  0.14296641856555098
0.303  0.9677147227979944  0.14338991735242887
0.304  0.9675145270627268  0.14381296523850706
0.305  0.96731383441926  0.14423556139826618
0.306  0.967112646247716  0.144657705011408
0.307  0.9669109639294864  0.1450793952628542
0.308  0.9667087888472091  0.14550063134274513
0.309  0.9665061223847465  0.14592141244643814
0.31  0.9663029659271614  0.14634173777450593
0.311  0.9660993208606948  0.14676160653273515
0.312  0.965895188572742  0.14718101793212426
0.313  0.9656905704518307  0.14759997118888152
0.314  0.965485467887598  0.14801846552442327
0.315  0.9652798822707672  0.1484365001653714
0.316  0.9650738149931263  0.14885407434355144
0.317  0.9648672674475032  0.14927118729598973
0.318  0.9646602410277455  0.14968783826491147
0.319  0.9644527371286963  0.15010402649773746
0.32  0.964244757146172  0.15051975124708192
0.321  0.96403630247694  0.15093501177074942
0.322  0.9638273745186972  0.151349807331732
0.323  0.9636179746700462  0.15176413719820625
0.324  0.9634081043304727  0.15217800064352974
0.325  0.9631977649003258  0.15259139694623844
0.326  0.9629869577807926  0.1530043253900428
0.327  0.9627756843738778  0.1534167852638244
0.328  0.962563946082382  0.15382877586163266
0.329  0.9623517443098788  0.15424029648268087
0.33  0.962139080460692  0.1546513464313426
0.331  0.9619259559398756  0.1550619250171476
0.332  0.9617123721531912  0.1554720315547781
0.333  0.9614983305070851  0.15588166536406467
0.334  0.9612838324086672  0.1562908257699818
0.335  0.9610688792656907  0.15669951210264388
0.336  0.9608534724865279  0.1571077236973007
0.337  0.9606376134801504  0.15751545989433294
0.338  0.9604213036561076  0.1579227200392478
0.339  0.9602045444245034  0.15832950348267402
0.34  0.9599873371959773  0.1587358095803573
0.341  0.9597696833816802  0.15914163769315534
0.342  0.9595515843932567  0.15954698718703286
0.343  0.9593330416428203  0.15995185743305676
0.34400000000000003  0.959114056542934  0.16035624780739052
0.34500000000000003  0.9588946305065899  0.16076015769128932
0.34600000000000003  0.9586747649471852  0.1611635864710945
0.34700000000000003  0.9584544612785051  0.16156653353822814
0.34800000000000003  0.9582337209146989  0.1619689982891876
0.34900000000000003  0.9580125452702601  0.1623709801255398
0.35000000000000003  0.9577909357600065  0.16277247845391546
0.35100000000000003  0.9575688937990577  0.16317349268600334
0.352  0.9573464208028158  0.16357402223854434
0.353  0.9571235181869435  0.1639740665333255
0.354  0.9569001873673453  0.1643736249971738
0.355  0.956676429760146  0.16477269706195016
0.356  0.9564522467816693  0.16517128216454294
0.357  0.9562276398484197  0.1655693797468617
0.358  0.9560026103770606  0.1659669892558309
0.359  0.9557771597843939  0.16636411014338304
0.36  0.9555512894873411  0.16676074186645243
0.361  0.9553250009029226  0.1671568838869679
0.362  0.9550982954482367  0.1675525356718467
0.363  0.9548711745404415  0.16794769669298706
0.364  0.9546436395967337  0.16834236642726164
0.365  0.9544156920343294  0.16873654435651014
0.366  0.9541873332704438  0.16913022996753224
0.367  0.9539585647222721  0.16952342275208063
0.368  0.953729387806969  0.16991612220685337
0.369  0.9534998039416313  0.1703083278334867
0.37  0.9532698145432752  0.1707000391385477
0.371  0.9530394210288198  0.1710912556335264
0.372  0.9528086248150665  0.17148197683482833
0.373  0.9525774273186791  0.17187220226376693
0.374  0.9523458299561668  0.17226193144655572
0.375  0.9521138341438624  0.17265116391430013
0.376  0.9518814412979055  0.1730398992029902
0.377  0.9516486528342221  0.1734281368534918
0.378  0.9514154701685062  0.17381587641153917
0.379  0.9511818947162015  0.1742031174277264
0.38  0.9509479278924818  0.17458985945749925
0.381  0.9507135711122328  0.17497610206114694
0.382  0.9504788257900334  0.17536184480379366
0.383  0.9502436933401374  0.17574708725539012
0.384  0.9500081751764546  0.17613182899070498
0.385  0.9497722727125331  0.17651606958931632
0.386  0.94953598736154  0.17689980863560284
0.387  0.9492993205362444  0.1772830457187352
0.388  0.9490622736489988  0.17766578043266723
0.389  0.9488248481117195  0.17804801237612677
0.39  0.9485870453358717  0.17842974115260712
0.391  0.9483488667324492  0.17881096637035757
0.392  0.9481103137119572  0.1791916876423747
0.393  0.9478713876843946  0.17957190458639283
0.394  0.9476320900592361  0.17995161682487507
0.395  0.9473924222454155  0.18033082398500386
0.396  0.947152385651307  0.18070952569867155
0.397  0.9469119816847084  0.18108772160247122
0.398  0.9466712117528226  0.1814654113376869
0.399  0.9464300772622432  0.1818425945502841
0.4  0.9461885796189338  0.18221927089090018
0.401  0.9459467202282128  0.18259544001483463
0.402  0.9457045004947363  0.1829711015820395
