t   Re(c(t))    Im(c(t))
0.0  1.0  0.0
0.01  0.9999625027341494  0.004999687524607292
0.02  0.9998500437355675  0.009997500787231987
0.03  0.9996627213200517  0.014991568475500625
0.04  0.9994006990772853  0.019980025165728582
0.05  0.9990642054672487  0.024961014241007825
0.06  0.9986535332579412  0.029932690777973687
0.07  0.9981690388071295  0.03489322439211956
0.08  0.9976111411915917  0.039840802031789864
0.09  0.9969803211880152  0.04477363071130345
0.1  0.9962771201104094  0.04968994017403852
0.11  0.9955021385095191  0.054587985476742734
0.12  0.9946560347403294  0.05946604948681468
0.13  0.9937395234043074  0.06432244528482944
0.14  0.9927533736735165  0.06915551846514878
0.15  0.9916984075042049  0.0739636493280574
0.16  0.9905754977478424  0.07874525495749891
0.17  0.9893855661679334  0.08349879117913908
0.18  0.9881295813711912  0.08822275439415757
0.19  0.9868085566618957  0.09291568328485351
0.2  0.9854235478283914  0.09757616038884374
0.21  0.9839756508708026  0.10220281353932342
0.22  0.982465999679064  0.10679431716954911
0.23  0.9808957636703575  0.11134939348038222
0.24  0.9792661453949774  0.11586681347039701
0.25  0.9775783781195175  0.12034539782870127
0.26  0.9758337233961053  0.12478401769124395
0.27  0.9740334686261876  0.12918159526197634
0.28  0.9721789246271192  0.13353710430080282
0.29  0.9702714232095048  0.13784957048078778
0.3  0.9683123147729016  0.1421180716175835
0.31  0.9663029659271447  0.1463417377745024
0.32  0.9642447571461544  0.1505197512470781
0.33  0.9621390804606741  0.1546513464313386
0.34  0.9599873371959586  0.15873580958035305
0.35000000000000003  0.9577909357599879  0.16277247845391102
0.36  0.9555512894873218  0.16676074186644774
0.37  0.9532698145432553  0.17070003913854287
0.38  0.9509479278924616  0.17458985945749414
0.39  0.9485870453358507  0.17842974115260177
0.4  0.9461885796189125  0.18221927089089457
0.41000000000000003  0.9437539386143462  0.1859580827990908
0.42  0.9412845235813546  0.1896458575176087
0.43  0.9387817275035254  0.19328232119243793
0.44  0.9362469335068243  0.1968672444106406
0.45  0.9336815133587972  0.20040044108518754
0.46  0.9310868260497263  0.20388176729474097
0.47000000000000003  0.9284642164560822  0.20731112008387678
0.48  0.925815014086299  0.21068843622910377
0.49  0.9231405319085518  0.21401369097587872
0.5  0.920442065259929  0.21728689675164117
0.51  0.9177208908361003  0.22050810185970435
0.52  0.9149782657603276  0.22367738915863727
0.53  0.9122154267304268  0.22679487473156135
0.54  0.9094335892420804  0.22986070654956603
0.55  0.906633946886697  0.23287506313322368
0.56  0.9038176707218621  0.23583815221595084
0.5700000000000001  0.9009859087122516  0.23875020941273575
0.58  0.8981397852387749  0.24161149689751374
0.59  0.8952804006735824  0.24442230209224325
0.6  0.892408831018501  0.24718293637050126
0.61  0.8895261276043729  0.24989373377819285
0.62  0.8866333168487239  0.25255504977374027
0.63  0.8837314000691484  0.25516725998990597
0.64  0.8808213533497664  0.2577307590191832
0.65  0.877904127458101  0.26024595922448884
0.66  0.8749806478097253  0.26271328957669
0.67  0.8720518144780334  0.26513319452030853
0.68  0.8691185022465251  0.267506132868561
0.6900000000000001  0.8661815607010128  0.26983257672872346
0.7000000000000001  0.8632418143592121  0.2721130104586389
0.71  0.8603000628352184  0.2743479296550348
0.72  0.8573570810364312  0.2765378401741663
0.73  0.8544136193905504  0.2786832571851663
0.74  0.8514704041003317  0.28078470425635244
0.75  0.8485281374238611  0.2828427124746208
0.76  0.8455874979781897  0.28485781959794587
0.77  0.8426491410642285  0.2868305692409031
0.78  0.8397136990109128  0.2887615100930342
0.79  0.8367817815366929  0.2906511951697917
0.8  0.8338539761265216  0.292500181095719
0.81  0.8309308484225677  0.29430902741945075
0.8200000000000001  0.8280129426269842  0.2960782959600541
0.8300000000000001  0.8251007819151358  0.2978085501841791
0.84  0.8221948688577732  0.2995003546134269
0.85  0.8192956858507263  0.3011542742613091
0.86  0.816403695550762  0.3027708740991282
0.87  0.8135193413163417  0.304350718550078
0.88  0.8106430476520791  0.30589437101083267
0.89  0.8077752206557824  0.307402393399875
0.9  0.8049162484670331  0.30887534573178965
0.91  0.8020665017163277  0.3103137857167388
0.92  0.7992263339738734  0.31171826838432337
0.93  0.7963960821971987  0.31308934573102887
0.9400000000000001  0.7935760671768004  0.31442756639044633
0.9500000000000001  0.7907665939791113  0.31573347532546814
0.96  0.7879679523861296  0.31700761354164775
0.97  0.7851804173311087  0.3182505178209289
0.98  0.7824042493297575  0.31946272047494795
0.99  0.7796396949064548  0.32064474911712887
1.0  0.7768869870150233  0.32179712645279385
1.01  0.7741463454536657  0.3229203700865325
1.02  0.7714179772736933  0.32401499234607956
1.03  0.7687020771817341  0.3250815001219688
1.04  0.7659988279351335  0.32612039472224913
1.05  0.7633084007303033  0.3271321717415592
1.06  0.7606309555838093  0.328117320943881
1.07  0.757966641706012  0.3290763261583076
1.08  0.7553155978671173  0.3300096651871781
1.09  0.7526779527555084  0.330917809725955
1.1  0.750053825328267  0.3318012252942346
1.11  0.7474433251538082  0.3326603711773041
1.12  0.7448465527465808  0.3334957003776764
1.1300000000000001  0.7422635998938039  0.3343076595760517
1.1400000000000001  0.7396945499742258  0.3350966891011802
1.1500000000000001  0.7371394782689185  0.33586322290811055
1.16  0.7345984522641233  0.336607688564339
1.17  0.7320715319461936  0.3373305072433807
1.18  0.7295587700886783  0.33803209372531506
1.19  0.7270602125316162  0.33871285640386645
1.2  0.7245758984531109  0.33937319729960524
1.21  0.722105860633274  0.3400135120788681
1.22  0.7196501257106286  0.34063419007801693
1.23  0.7172087144310748  0.34123561433266986
1.24  0.7147816418895272  0.3418181616115554
1.25  0.7123689177643366  0.3423822024546576
1.26  0.7099705465446193  0.34292810121533357
1.27  0.7075865277506179  0.3434562161061019
1.28  0.7052168561472208  0.3439668992478128
1.29  0.7028615219507777  0.34446049672192847
1.3  0.7005205110293411  0.34493734862564995
1.31  0.6981938050964763  0.3453977891296478
1.32  0.6958813818987769  0.34584214653815837
1.33  0.6935832153972261  0.34627074335122593
1.34  0.6912992759425489  0.34668389632887986
1.35  0.6890295304446927  0.3470819165570482
1.36  0.6867739425365853  0.3474651095150174
1.37  0.6845324727323039  0.34783377514426544
1.3800000000000001  0.6823050785798055  0.3481882079184937
1.3900000000000001  0.6800917148083552  0.3485286969147074
1.4000000000000001  0.6778923334707915  0.3488555258851891
1.41  0.6757068840807726  0.34916897333022906
1.42  0.6735353137451343  0.34946931257148006
1.43  0.6713775672915011  0.34975681182581175
1.44  0.6692335873912819  0.35003173427955103
1.45  0.6671033146781818  0.3502943381629975
1.46  0.6649866878623647  0.3505448768251133
1.47  0.6628836438403863  0.3507835988082933
1.48  0.6607941178010329  0.35101074792312514
1.49  0.6587180433271828  0.35122656332305763
1.5  0.6566553524938146  0.35143127957890063
1.51  0.6546059759622807  0.3516251267530843
1.52  0.6525698430709594  0.35180833047361193
1.53  0.6505468819224063  0.351981112007644
1.54  0.648537019467107  0.3521436883346591
1.55  0.646540181583948  0.35229627221913523
1.56  0.6445562931575076  0.3524390722827076
1.57  0.6425852781522701  0.35257229307575555
1.58  0.6406270596838678  0.3526961351483793
1.59  0.6386815600874441  0.3528107951207294
1.6  0.636748700983241  0.35291646575265617
1.61  0.6348284033394935  0.35301333601264456
1.62  0.632920587532734  0.3531015911460136
1.6300000000000001  0.6310251734055878  0.35318141274234843
1.6400000000000001  0.6291420803221444  0.35325297880214857
1.6500000000000001  0.6272712272209946  0.35331646380266846
1.6600000000000001  0.6254125326660094  0.3533720387629358
1.67  0.6235659148949417  0.35341987130793107
1.68  0.6217312918659251  0.353460125731915
1.69  0.6199085813019487  0.3534929630608937
1.7  0.6180977007333746  0.353518541114211
1.71  0.6162985675385717  0.35353701456526154
1.72  0.6145110989827312  0.3535485350013167
1.73  0.6127352122549322  0.35355325098246054
1.74  0.6109708245035185  0.3535513080996307
1.75  0.6092178528698478  0.3535428490317645
1.76  0.6074762145204777  0.35352801360204655
1.77  0.6057458266778387  0.3535069388332609
1.78  0.6040266066494588  0.35347975900224676
1.79  0.6023184718557848  0.3534466056934629
1.8  0.6006213398566607  0.35340760785165976
1.81  0.5989351283765088  0.3533628918336678
1.82  0.5972597553282636  0.3533125814593036
1.83  0.5955951388361076  0.35325679806140037
1.84  0.5939411972570514  0.35319566053496954
1.85  0.5922978492014066  0.35312928538549826
1.86  0.5906650135521895  0.3530577867763921
1.87  0.5890426094835003  0.3529812765755691
1.8800000000000001  0.5874305564779171  0.3528998644012149
1.8900000000000001  0.5858287743429414  0.3528136576667047
1.9000000000000001  0.5842371832265342  0.35272276162470484
1.9100000000000001  0.5826557036317774  0.3526272794104596
1.92  0.5810842564306967  0.3525273120842749
1.93  0.5795227628772756  0.3524229586732082
1.94  0.5779711446196977  0.3523143162119744
1.95  0.5764293237118466  0.3522014797830774
1.96  0.5748972226240886  0.35208454255617916
1.97  0.5733747642533763  0.3519635958267162
1.98  0.571861871932693  0.35183872905377195
1.99  0.5703584694398681  0.3517100298972205
2.0  0.5688644810057898  0.351577584254148
2.0100000000000002  0.5673798313220383  0.35144147629456396
2.02  0.5659044455479657  0.3513017884964159
2.0300000000000002  0.564438249317244  0.3511586016799138
2.04  0.5629811687439031  0.35101199504117975
2.05  0.5615331304278839  0.3508620461852301
2.06  0.5600940614601223  0.3507088311583042
2.07  0.5586638894271877  0.35055242447954804
2.08  0.5572425424154936  0.3503928991720662
2.09  0.5558299490151  0.35023032679334953
2.1  0.5544260383231229  0.35006477746509407
2.11  0.5530307399467717  0.34989631990241676
2.12  0.5516439840060275  0.34972502144248274
2.13  0.5502657011359815  0.34955094807255294
2.14  0.5488958224888444  0.3493741644574621
2.15  0.5475342797356476  0.34919473396653833
2.16  0.5461810050676433  0.3490127186999747
2.17  0.544835931197424  0.34882817951466233
2.18  0.5434989913597689  0.3486411760494953
2.19  0.542170119312233  0.3484517667501573
2.2  0.5408492493354906  0.3482600088934004
2.21  0.5395363162334424  0.34806595861082434
2.22  0.5382312553331027  0.34786967091216736
2.23  0.5369340024842699  0.34767119970811683
2.24  0.5356444940589987  0.34747059783265016
2.25  0.534362666950878  0.3472679170649138
2.2600000000000002  0.5330884585741255  0.3470632081506509
2.27  0.5318218068625112  0.3468565208231847
2.2800000000000002  0.530562650268114  0.3466479038239689
2.29  0.5293109277599226  0.34643740492271063
2.3000000000000003  0.5280665788222888  0.346225070937078
2.31  0.52682954345324  0.3460109477519968
2.32  0.5255997621626592  0.3457950803385481
2.33  0.5243771759703386  0.3455775127724724
2.34  0.5231617264039156  0.3453582882522896
2.35  0.5219533554966956  0.34513744911704186
2.36  0.52075200578537  0.34491503686366787
2.37  0.519557620307633  0.34469109216401506
2.38  0.5183701425997069  0.34446565488149816
2.39  0.5171895166937763  0.34423876408741066
2.4  0.5160156871153431  0.3440104580768965
2.41  0.5148485988804997  0.34378077438459015
2.42  0.5136881974931322  0.34354974979992914
2.43  0.5125344289420556  0.3433174203821495
2.44  0.511387239698084  0.343083821474968
2.45  0.5102465767110419  0.34284898772095795
2.46  0.5091123874067235  0.3426129530756276
2.47  0.5079846196837956  0.3423757508212031
2.48  0.5068632219106587  0.34213741358012595
2.49  0.5057481429222612  0.3418979733282696
2.5  0.5046393320168755  0.3416574614078795
2.5100000000000002  0.5035367389528362  0.3414159085402458
2.52  0.5024403139452452  0.3411733448381113
2.5300000000000002  0.5013500076626473  0.3409297998178219
2.54  0.5002657712236765  0.3406853024112241
2.5500000000000003  0.49918755619368027  0.3404398809773155
2.56  0.498115314581319  0.3401935633136539
2.57  0.49704899883514825  0.33994637666752886
2.58  0.49598856184018214  0.33969834774690116
2.59  0.49493395691444475  0.3394495027311166
2.6  0.49388513780550564  0.3391998672813966
2.61  0.4928420586870078  0.3389494665511124
2.62  0.49180467415518614  0.3386983251958451
2.63  0.4907729392253802  0.3384464673832397
2.64  0.48974680932854114  0.33819391680265326
2.65  0.4887262403077375  0.3379406966746048
2.66  0.4877111884146592  0.3376868297600301
2.67  0.4867016103061212  0.33743233836934494
2.68  0.4856974630405705  0.33717724437132124
2.69  0.48469870407459603  0.33692156920178207
2.7  0.4837052912594435  0.33666533387211445
2.71  0.4827171828375352  0.3364085589776103
2.72  0.4817343374389988  0.3361512647056336
2.73  0.4807567140782035  0.3358934708436204
2.74  0.4797842721503067  0.33563519678691534
2.75  0.4788169714278106  0.3353764615464463
2.7600000000000002  0.4778547720571298  0.3351172837562419
2.77  0.47689763455517264  0.3348576816807964
2.7800000000000002  0.47594551980593675  0.33459767322228184
2.79  0.4749983890571158  0.33433727592761464
2.8000000000000003  0.47405620391672515  0.33407650699537655
2.81  0.47311892634974023  0.33381538328259497
2.82  0.47218651867475336  0.33355392131138534
2.83  0.4712589435606462  0.33329213727545703
2.84  0.4703361640232827  0.33303004704648853
2.85  0.4694181434222169  0.3327676661803718
2.86  0.4685048454574224  0.33250500992333004
2.87  0.46759623416604024  0.3322420932179114
2.88  0.46669227391914686  0.3319789307088619
2.89  0.46579292941854195  0.33171553674887794
2.9  0.46489816569355824  0.33145192540424395
2.91  0.4640079480978913  0.33118811046035523
2.92  0.4631222423064518  0.3309241054271292
2.93  0.46224101431223863  0.33065992354430823
2.94  0.46136423042323527  0.3303955777866552
2.95  0.46049185725932845  0.33013108086904436
2.96  0.4596238617492476  0.32986644525145004
2.97  0.4587602111275307  0.32960168314383514
2.98  0.45790087293150994  0.32933680651094166
2.99  0.4570458149983231  0.32907182707698507
3.0  0.45619500546194697  0.3288067563302547
3.0100000000000002  0.45534841275025495  0.32854160552762207
3.02  0.45450600558209864  0.32827638569895945
3.0300000000000002  0.4536677529644131  0.3280111076514702
3.04  0.45283362418934553  0.3277457819739323
3.0500000000000003  0.45200358883140956  0.32748041904085795
3.06  0.45117761674466206  0.32721502901657046
3.0700000000000003  0.4503556780599053  0.32694962185919973
3.08  0.4495377431819121  0.3266842073245985
3.09  0.4487237827866774  0.32641879497018167
3.1  0.4479137678186915  0.32615339415868866
3.11  0.44710766948823955  0.32588801406187184
3.12  0.44630545926872434  0.32562266366411197
3.13  0.445507108894014  0.325357351765963
3.14  0.44471259035581306  0.3250920869876252
3.15  0.4439218759010591  0.3248268777723523
3.16  0.44313493802934173  0.32456173238978975
3.17  0.4423517494903469  0.324296658939248
3.18  0.4415722832813255  0.32403166535291206
3.19  0.440796512644585  0.3237667593989876
3.2  0.440024411065005  0.3235019486847851
3.21  0.4392559522675777  0.3232372406597454
3.22  0.43849111021497067  0.3229726426184034
3.23  0.43772985910511386  0.322708161703297
3.24  0.43697217336881056  0.3224438049078168
3.25  0.4362180276673711  0.32217957907900185
3.2600000000000002  0.4354673968902694  0.32191549092028077
3.27  0.43472025615282467  0.32165154699415927
3.2800000000000002  0.43397658079390244  0.3213877537248556
3.29  0.4332363463736436  0.32112411740088553
3.3000000000000003  0.4324995286712107  0.32086064417759663
3.31  0.4317661036825616  0.3205973400796538
3.3200000000000003  0.431036047618242  0.32033421100347703
3.33  0.43030933690120315  0.32007126271963204
3.34  0.4295859481646394  0.31980850087517426
3.35  0.42886585824984924  0.319545930995949
3.36  0.428149044204118  0.31928355848884615
3.37  0.42743548327862196  0.31902138864401247
3.38  0.4267251529263536  0.3187594266370208
3.39  0.4260180308000699  0.3184976775309985
3.4  0.4253140947502605  0.3182361462787144
3.41  0.4246133228231364  0.3179748377246262
3.42  0.4239156932586412  0.3177137566068892
3.43  0.42322118448848234  0.3174529075593258
3.44  0.422529775134183  0.3171922951133588
3.45  0.4218414440051542  0.3169319236999061
3.46  0.4211561700967867  0.3166717976512417
3.47  0.4204739325885649  0.31641192120281947
3.48  0.4197947108421978  0.3161522984950631
3.49  0.4191184843997731  0.31589293357512244
3.5  0.4184452329819268  0.31563383039859594
3.5100000000000002  0.41777493648603614  0.3153749928312214
3.52  0.41710757498442885  0.31511642465053374
3.5300000000000002  0.4164431287226135  0.3148581295474927
3.54  0.41578157811752714  0.31460011112807895
3.5500000000000003  0.4151229037558024  0.31434237291486083
3.56  0.4144670863920536  0.3140849183485312
3.5700000000000003  0.4138141069471793  0.3138277507894158
3.58  0.413163946506686  0.3135708735189529
3.59  0.412516586319027  0.3133142897411462
3.6  0.4118720077939605  0.313058002583989
3.61  0.4112301925009256  0.3128020151008634
3.62  0.4105911221674348  0.31254633027191225
3.63  0.40995477867748464  0.31229095100538606
3.64  0.4093211440699828  0.3120358801389649
3.65  0.408690200537193  0.311781120441055
3.66  0.40806193042319583  0.3115266746120624
3.67  0.40743631622236703  0.31127254528564186
3.68  0.40681334057787144  0.3110187350299231
3.69  0.4061929862801741  0.31076524634871505
3.7  0.4055752362655663  0.310512081682686
3.71  0.40496007361470937  0.3102592434105238
3.72  0.4043474815511921  0.3100067338500736
3.73  0.40373744344010576  0.309754555259455
3.74  0.4031299427866335  0.3095027098381585
3.75  0.40252496323465475  0.3092511997281214
3.7600000000000002  0.4019224885653667  0.30900002701478496
3.77  0.4013225026959181  0.30874919372813103
3.7800000000000002  0.40072498967805975  0.30849870184370015
3.79  0.40012993369680894  0.308248553283591
3.8000000000000003  0.39953731906912915  0.3079987499174419
3.81  0.39894713024262307  0.30774929356339287
3.8200000000000003  0.39835935179424015  0.3075001859890325
3.83  0.39777396842899915  0.30725142891232543
3.84  0.39719096497872314  0.307003024002524
3.85  0.3966103264007892  0.30675497288106274
3.86  0.3960320377768917  0.3065072771224373
3.87  0.3954560843118182  0.3062599382550667
3.88  0.3948824513322402  0.30601295776214
3.89  0.3943111242855154  0.30576633708244816
3.9  0.39374208873850436  0.3055200776112
3.91  0.3931753303763984  0.30527418070082435
3.92  0.39261083500156285  0.3050286476617562
3.93  0.3920485885323894  0.30478347976321096
3.94  0.3914885770021645  0.30453867823394215
3.95  0.39093078655794744  0.30429424426298735
3.96  0.3903752034594617  0.3040501790003993
3.97  0.38982181407799843  0.30380648355796525
3.98  0.3892706048953316  0.30356315900991215
3.99  0.3887215625026447  0.30332020639359975
4.0  0.38817467359946967  0.3030776267102013
4.01  0.38762992499263677  0.3028354209253714
4.0200000000000005  0.3870873035952363  0.3025935899699028
4.03  0.3865467964255913  0.3023521347403711
4.04  0.3860083906062413  0.3021110560997669
4.05  0.38547207336293765  0.3018703548781186
4.0600000000000005  0.38493783202364884  0.3016300318731022
4.07  0.3844056540175775  0.3013900878506415
4.08  0.3838755268741872  0.30115052354549676
4.09  0.38334743822224077  0.3009113396618435
4.1  0.3828213757888478  0.3006725368738405
4.11  0.3822973273985233  0.3004341158261876
4.12  0.3817752809722566  0.30019607713467483
4.13  0.38125522452658944  0.2999584213867197
