t   Re(c(t))    Im(c(t))
0.0  0.9999999999999999  0.0
0.001  0.9999801754831514  0.006265582772652
0.002  0.9999207027499522  0.012530912183345694
0.003  0.9998215842524041  0.018795734880770285
0.004  0.9996828240770607  0.025059797534909445
0.005  0.9995044279448524  0.03132284684768753
0.006  0.999286403210841  0.03758462956361419
0.007  0.999028758863905  0.043844892480427285
0.008  0.9987315055263535  0.050103382459733364
0.009000000000000001  0.9983946554534736  0.056359846437645425
0.01  0.9980182225330032  0.06261403143541741
0.011  0.9976022222845384  0.06886568457007494
0.012  0.9971466718588662  0.07511455306504196
0.013000000000000001  0.9966515900372338  0.08136038426076274
0.014  0.9961169972305403  0.08760292562531857
0.015  0.9955429154784661  0.09384192476503925
0.016  0.9949293684485263  0.10007712943510805
0.017  0.9942763814350594  0.10630828755016082
0.018000000000000002  0.9935839813581429  0.11253514719487759
0.019  0.9928521967624402  0.11875745663456683
0.02  0.9920810578159804  0.12497496432574227
0.021  0.9912705963088639  0.1311874189266908
0.022  0.990420845651903  0.13739456930803193
0.023  0.9895318408751896  0.14359616456326788
0.024  0.9886036186265974  0.149791954019324
0.025  0.9876362171702109  0.15598168724707884
0.026000000000000002  0.9866296763846872  0.1621651140718838
0.027  0.9855840377615497  0.16834198458407154
0.028  0.9844993444034102  0.1745120491494529
0.029  0.9833756410221238  0.18067505841980172
0.03  0.9822129739368752  0.1868307633433273
0.031  0.9810113910721947  0.19297891517513382
0.032  0.9797709419559063  0.19911926548766648
0.033  0.9784916777170081  0.20525156618114374
0.034  0.9771736510834826  0.21137556949397515
0.035  0.9758169163800394  0.21749102801316467
0.036000000000000004  0.9744215295257892  0.22359769468469867
0.037  0.9729875480318514  0.22969532282391816
0.038  0.9715150309988894  0.23578366612587512
0.039  0.9700040391145823  0.24186247867567212
0.04  0.9684546346510277  0.2479315149587849
0.041  0.9668668814620736  0.2539905298713678
0.042  0.965240844980587  0.26003927873054056
0.043000000000000003  0.9635765922156528  0.2660775172846581
0.044  0.9618741917497046  0.2721050017235596
0.045  0.9601337137355893  0.27812148868880016
0.046  0.9583552298935655  0.2841267352838616
0.047  0.9565388135082327  0.2901204990843437
0.048  0.954684539425394  0.29610253814813425
0.049  0.9527924840488556  0.3020726110255591
0.05  0.9508627253371529  0.30803047676950945
0.051000000000000004  0.9488953428002169  0.31397589494554834
0.052000000000000005  0.9468904174959715  0.31990862564199407
0.053  0.9448480320268624  0.32582842947998136
0.054  0.9427682705363245  0.33173506762349847
0.055  0.9406512187051798  0.3376283017894019
0.056  0.9384969637479719  0.34350789425740574
0.057  0.9363055944092334  0.3493736078800472
0.058  0.9340772009596896  0.3552252060926271
0.059000000000000004  0.9318118751923941  0.3610624529231247
0.06  0.9295097104188038  0.36688511300208687
0.061  0.9271708014647846  0.3726929515724911
0.062  0.9247952446665562  0.3784857344995813
0.063  0.9223831378665678  0.3842632282806774
0.064  0.9199345804093162  0.39002520005495644
0.065  0.9174496731370927  0.39577141761320656
0.066  0.9149285183856709  0.4015016494075516
0.067  0.9123712199799286  0.40721566456114755
0.068  0.9097778832294076  0.4129132328778502
0.069  0.9071486149238077  0.41859412485185166
0.07  0.9044835233284204  0.4242581116772886
0.07100000000000001  0.9017827181794982  0.4299049652578182
0.07200000000000001  0.899046310679561  0.43553445821616493
0.073  0.896274413492641  0.44114636390363454
0.074  0.8934671407394639  0.44674045640959714
0.075  0.890624607992569  0.4523165105709377
0.076  0.8877469322713676  0.4578743019814748
0.077  0.8848342320371382  0.4634136070013448
0.078  0.8818866271879623  0.46893420276635456
0.079  0.8789042390535983  0.47443586719729886
0.08  0.8758871903902925  0.47991837900924433
0.081  0.8728356053755333  0.485381517720779
0.082  0.8697496096027397  0.4908250636632257
0.083  0.8666293300758957  0.4962487979898218
0.084  0.8634748952041179  0.5016525026848613
0.085  0.8602864347961694  0.5070359605728029
0.08600000000000001  0.8570640800549101  0.5123989553273389
0.08700000000000001  0.853807963571688  0.517741271480429
0.088  0.8505182193206757  0.5230626944312967
0.089  0.8471949826531411  0.5283630104553868
0.09  0.8438383902916651  0.5336420067132854
0.091  0.8404485803242988  0.5388994712596017
0.092  0.8370256921986634  0.5441351930518105
0.093  0.8335698667159909  0.5493489619590548
0.094  0.8300812460251088  0.5545405687709103
0.095  0.8265599736163667  0.5597098052061082
0.096  0.8230061943155067  0.5648564639212185
0.097  0.8194200542774764  0.5699803385192921
0.098  0.8158017009801845  0.5750812235584619
0.099  0.812151283218203  0.5801589145605027
0.1  0.8084689510964106  0.5852132080193481
0.101  0.8047548560235823  0.5902439014095653
0.10200000000000001  0.8010091507059234  0.5952507931947894
0.10300000000000001  0.7972319891405468  0.6002336828361112
0.10400000000000001  0.793423526608899  0.6051923708004245
0.105  0.7895839196701275  0.6101266585687278
0.106  0.7857133261543976  0.6150363486443826
0.107  0.7818119051561525  0.619921244561328
0.108  0.7778798170273231  0.6247811508922487
0.109  0.7739172233704797  0.6296158732566993
0.11  0.7699242870319369  0.6344252183291825
0.111  0.7659011720947997  0.6392089938471814
0.112  0.7618480438719623  0.6439670086191467
0.113  0.757765068899051  0.648699072532434
0.114  0.7536524149273177  0.6534049965611991
0.115  0.7495102509164822  0.6580845927742419
0.116  0.7453387470275206  0.6627376743428043
0.117  0.7411380746154063  0.6673640555483216
0.11800000000000001  0.7369084062217988  0.6719635517901217
0.11900000000000001  0.7326499155676824  0.6765359795930811
0.12  0.7283627775459558  0.6810811566152264
0.121  0.7240471682139705  0.6855989016552915
0.122  0.7197032647860233  0.6900890346602215
0.123  0.715331245625796  0.6945513767326283
0.124  0.7109312902387501  0.6989857501381975
0.125  0.7065035792644709  0.70339197831304
0.126  0.7020482944689659  0.7077698858709993
0.127  0.6975656187369126  0.7121192986109022
0.128  0.6930557360638628  0.7164400435237609
0.129  0.6885188315483989  0.7207319487999214
0.13  0.6839550913842412  0.7249948438361628
0.131  0.6793647028523135  0.7292285592427403
0.132  0.6747478543127592  0.7334329268503792
0.133  0.6701047351969146  0.7376077797172123
0.134  0.6654355359992353  0.7417529521356685
0.135  0.6607404482691792  0.7458682796393034
0.136  0.6560196646030448  0.7499535990095774
0.137  0.6512733786357656  0.7540087482825824
0.138  0.64650178503266  0.7580335667557097
0.139  0.6417050794811399  0.762027894994266
0.14  0.6368834586823744  0.7659915748380337
0.14100000000000001  0.6320371203429129  0.7699244494077759
0.14200000000000002  0.6271662631662647  0.7738263631116848
0.14300000000000002  0.6222710868444365  0.7776971616517763
0.14400000000000002  0.617351792049431  0.7815366920302266
0.145  0.6124085804247014  0.7853448025556539
0.146  0.6074416545765672  0.7891213428493419
0.147  0.6024512180655894  0.7928661638514072
0.148  0.5974374753979061  0.79657911782691
0.149  0.5924006320165275  0.800260058371907
0.15  0.5873408942925921  0.803908840419445
0.151  0.5822584695165872  0.8075253202454997
0.152  0.5771535658895249  0.8111093554748531
0.153  0.5720263925140874  0.8146608050869143
0.154  0.5668771593857279  0.8181795294214823
0.155  0.5617060773837406  0.8216653901844468
0.156  0.5565133582622889  0.8251182504534333
0.157  0.5512992146414005  0.8285379746833854
0.158  0.5460638599979245  0.831924428712091
0.159  0.540807508656455  0.8352774797656463
0.16  0.535530375780217  0.8385969964638589
0.161  0.53023267736192  0.8418828488255935
0.162  0.524914630214576  0.8451349082740545
0.163  0.5195764519622831  0.8483530476420083
0.164  0.5142183610309768  0.8515371411769451
0.165  0.5088405766391477  0.8546870645461798
0.166  0.5034433187885256  0.8578026948418898
0.167  0.4980268082547327  0.8608839105860927
0.168  0.49259126657790414  0.863930591735562
0.169  0.48713691605327664  0.8669426196866787
0.17  0.48166397972174746  0.869919877280225
0.171  0.47617268136040086  0.8728622488061094
0.17200000000000001  0.47066324547300625  0.8757696200080345
0.17300000000000001  0.46513589728048443  0.8786418780880991
0.17400000000000002  0.4595908627113467  0.8814789117113391
0.17500000000000002  0.45402836839210337  0.884280611010202
0.176  0.44844864163764386  0.8870468675889607
0.177  0.44285191044158956  0.8897775745280644
0.178  0.4372384034666181  0.8924726263884214
0.179  0.4316083500347609  0.8951319192156225
0.18  0.4259619801176734  0.8977553505440984
0.181  0.42029952432687934  0.9003428194012115
0.182  0.41462121390398865  0.9028942263112857
0.183  0.4089272807108899  0.9054094732995699
0.184  0.403217957219918  0.9078884638961363
0.185  0.397493476503996  0.9103311031397153
0.186  0.39175407222675485  0.9127372975814638
0.187  0.3859999786326267  0.9151069552886691
0.188  0.38023143053691655  0.9174399858483862
0.189  0.3744486633158504  0.919736300371011
0.19  0.36865191289660126  0.9219958114937867
0.191  0.3628414157472919  0.9242184333842446
0.192  0.3570174088669777  0.9264040817435784
0.193  0.35118012977560686  0.9285526738099539
0.194  0.3453298165039605  0.9306641283617489
0.195  0.3394667075835725  0.9327383657207323
0.196  0.33359104203662887  0.9347753077551696
0.197  0.32770305936584854  0.9367748778828684
0.198  0.32180299954434427  0.9387370010741525
0.199  0.31589110300546597  0.94066160385477
0.2  0.309967610632625  0.9425486143087378
0.201  0.3040327637491014  0.9443979620811126
0.202  0.29808680410783367  0.9462095783807002
0.203  0.29212997388119183  0.9479833959826944
0.20400000000000001  0.2861625156507343  0.9497193492312506
0.20500000000000002  0.2801846723969491  0.9514173740419877
0.20600000000000002  0.2741966874889787  0.9530774079044291
0.20700000000000002  0.2681988046743311  0.9546993898843676
0.20800000000000002  0.2621912680685759  0.9562832606261715
0.209  0.2561743221450259  0.9578289623550129
0.21  0.25014821172440604  0.9593364388790366
0.211  0.2441131819645082  0.9608056355914565
0.212  0.23806947834983402  0.9622364994725837
0.213  0.2320173466812251  0.9636289790917871
0.214  0.22595703306548157  0.9649830246093878
0.215  0.21988878390496944  0.9662985877784795
0.216  0.21381284588721639  0.9675756219466873
0.217  0.2077294659744986  0.9688140820578518
0.218  0.20163889139341556  0.9700139246536484
0.219  0.19554136962445762  0.9711751078751372
0.22  0.18943714839156245  0.9722975914642422
0.221  0.18332647565166438  0.9733813367651654
0.222  0.17720959958423474  0.9744263067257258
0.223  0.171086768580815  0.9754324658986393
0.224  0.16495823123454254  0.9763997804427187
0.225  0.15882423632966947  0.9773282181240122
0.226  0.15268503283107526  0.9782177483168706
0.227  0.14654086987377393  0.9790683420049456
0.228  0.14039199675241504  0.9798799717821165
0.229  0.13423866291078052  0.9806526118533543
0.23  0.12808111793127658  0.981386238035508
0.231  0.12191961152442177  0.9820808277580295
0.232  0.11575439351833137  0.9827363600636252
0.233  0.109585713848199  0.9833528156088379
0.234  0.1034138225457751  0.9839301766645623
0.23500000000000001  0.09723896972884372  0.9844684271164896
0.23600000000000002  0.09106140559069721  0.9849675524654826
0.23700000000000002  0.08488138038961007  0.9854275398278827
0.23800000000000002  0.07869914443831155  0.9858483779357459
0.23900000000000002  0.07251494809345824  0.9862300571370128
0.24  0.0663290417451066  0.986572569395605
0.241  0.060141675806186304  0.986875908291456
0.242  0.0539531007019743  0.9871400690204717
0.243  0.04776356685957059  0.9873650483944201
0.244  0.04157332469737596  0.9875508448407544
0.245  0.0353826246145721  0.9876974584023664
0.246  0.029191716980604604  0.9878048907372684
0.247  0.0230008521246691  0.9878731451182088
0.248  0.016810280325201665  0.9879022264322184
0.249  0.010620251799372992  0.9878921411800852
0.25  0.00443101669258744  0.9878428974757636
0.251  -0.0017571749320125535  0.9877545050457126
0.252  -0.00794407310403676  0.9876269752281642
0.253  -0.014129427956331249  0.987460320972326
0.254  -0.02031298973545576  0.9872545568375117
0.255  -0.02649450881215437  0.9870096989922056
0.256  -0.03267373569181858  0.986725765213056
0.257  -0.03885042102494245  0.9864027748838029
0.258  -0.04502431561756943  0.9860407489941325
0.259  -0.0511951704417305  0.9856397101384691
0.26  -0.057362736645872874  0.9851996825146924
0.261  -0.06352676556527896  0.9847206919227919
0.262  -0.06968700873247548  0.9842027657634489
0.263  -0.07584321788763153  0.9836459330365536
0.264  -0.08199514498894579  0.98305022433965
0.265  -0.08814254222302231  0.9824156718663171
0.266  -0.09428516201523422  0.981742309404479
0.267  -0.10042275704007489  0.9810301723346488
0.268  -0.1065550802314964  0.980279297628103
0.269  -0.11268188479323482  0.9794897238449908
0.27  -0.11880292420912118  0.9786614911323724
0.271  -0.12491795225337883  0.9777946412221937
0.272  -0.13102672300090595  0.9768892174291892
0.273  -0.13712899083754276  0.9759452646487216
0.274  -0.14322451047032342  0.9749628293545515
0.275  -0.14931303693771175  0.973941959596542
0.276  -0.15539432561982083  0.9728827049982938
0.277  -0.16146813224861525  0.971785116754716
0.278  -0.1675342129180966  0.9706492476295294
0.279  -0.17359232409447037  0.9694751519527017
0.28  -0.17964222262629592  0.9682628856178183
0.281  -0.1856836657546164  0.9670125060793855
0.28200000000000003  -0.19171641112307086  0.9657240723500684
0.28300000000000003  -0.1977402167879857  0.9643976449978608
0.28400000000000003  -0.20375484122844717  0.9630332861431926
0.28500000000000003  -0.20976004335635287  0.9616310594559669
0.28600000000000003  -0.2157555825264426  0.9601910301525356
0.28700000000000003  -0.22174121854630813  0.9587132649926069
0.28800000000000003  -0.22771671168638088  0.9571978322760883
0.289  -0.23368182268989815  0.9556448018398647
0.29  -0.23963631278284592  0.9540542450545101
0.291  -0.24557994368387953  0.9524262348209374
0.292  -0.2515124776142206  0.950760845566978
0.293  -0.25743367730753003  0.949058153243904
0.294  -0.2633433060197567  0.9473182353228801
0.295  -0.26924112753896207  0.9455411707913529
0.296  -0.275126906195119  0.9437270401493788
0.297  -0.2810004068698851  0.9418759254058838
0.298  -0.286861395006351  0.9399879100748626
0.299  -0.29270963661876115  0.938063079171513
0.3  -0.29854489830220865  0.9361015192083066
0.301  -0.30436694724230207  0.9341033181909986
0.302  -0.3101755512248059  0.9320685656145701
0.303  -0.3159704786452515  0.9299973524591139
0.304  -0.32175149851852125  0.9278897711856507
0.305  -0.3275183804884021  0.9257459157318895
0.306  -0.3332708948371115  0.9235658815079204
0.307  -0.3390088124947922  0.9213497653918495
0.308  -0.3447319050489787  0.9190976657253694
0.309  -0.3504399447540313  0.9168096823092693
0.31  -0.3561327045405407  0.9144859163988838
0.311  -0.3618099580247006  0.9121264706994792
0.312  -0.36747147951764947  0.9097314493615811
0.313  -0.3731170440347785  0.9073009579762398
0.314  -0.37874642730500985  0.904835103570235
0.315  -0.3843594057800385  0.9023339946012211
0.316  -0.3899557566435443  0.8997977409528124
0.317  -0.39553525782036786  0.8972264539296078
0.318  -0.4010976879856538  0.8946202462521562
0.319  -0.4066428265739589  0.8919792320518631
0.32  -0.4121704537883254  0.8893035268658377
0.321  -0.41768035060931974  0.8865932476316809
0.322  -0.4231722988040348  0.8838485126822141
0.323  -0.42864608093505663  0.8810694417401532
0.324  -0.4341014803693952  0.878256155912718
0.325  -0.43953828128737754  0.87540877768619
0.326  -0.44495626869150406  0.8725274309204093
0.327  -0.45035522841526804  0.8696122408432138
0.328  -0.45573494713193635  0.8666633340448249
0.329  -0.4610952123632921  0.8636808384721709
0.33  -0.46643581248833926  0.8606648834231584
0.331  -0.47175653675196777  0.8576155995408851
0.332  -0.477057175273579  0.8545331188077967
0.333  -0.482337519055672  0.8514175745397896
0.334  -0.4875973599923903  0.8482691013802555
0.335  -0.4928364908780263  0.8450878352940733
0.336  -0.4980547054154868  0.8418739135615436
0.337  -0.5032517982247166  0.8386274747722718
0.338  -0.5084275648510796  0.8353486588189919
0.339  -0.5135818017737014  0.8320376068913421
0.34  -0.5187143064137636  0.8286944614695818
0.341  -0.5238248771427629  0.8253193663182563
0.342  -0.5289133132907212  0.8219124664798105
0.343  -0.5339794151543557  0.8184739082681475
0.34400000000000003  -0.5390229840052041  0.8150038392621319
0.34500000000000003  -0.5440438220977062  0.8115024082990486
0.34600000000000003  -0.549041732677242  0.8079697654680017
0.34700000000000003  -0.554016519988123  0.8044060621032648
0.34800000000000003  -0.5589679892815407  0.8008114507775798
0.34900000000000003  -0.563895946823469  0.7971860852954052
0.35000000000000003  -0.5688001999025211  0.7935301206861121
0.35100000000000003  -0.5736805568377588  0.7898437131971295
0.352  -0.5785368269864593  0.7861270202870424
0.353  -0.5833688207518307  0.7823802006186356
0.354  -0.5881763495906848  0.7786034140518908
0.355  -0.5929592260210592  0.7747968216369344
0.356  -0.5977172636297942  0.7709605856069349
0.357  -0.6024502770800603  0.7670948693709525
0.358  -0.6071580821188388  0.7631998375067409
0.359  -0.6118404955843523  0.7592756557534995
0.36  -0.616497335413448  0.7553224910045809
0.361  -0.6211284206489303  0.7513405113001471
0.362  -0.6257335714468452  0.7473298858197821
0.363  -0.6303126090837141  0.7432907848750564
0.364  -0.6348653559637185  0.7392233799020458
0.365  -0.6393916356258327  0.7351278434538028
0.366  -0.6438912727509072  0.7310043491927842
0.367  -0.6483640931687018  0.7268530718832329
0.368  -0.6528099238648646  0.7226741873835135
0.369  -0.657228592987863  0.7184678726384057
0.37  -0.6616199298558598  0.7142343056713512
0.371  -0.6659837649635401  0.7099736655766571
0.372  -0.6703199299888828  0.7056861325116581
0.373  -0.6746282577998823  0.7013718876888322
0.374  -0.6789085824612143  0.697031113367875
0.375  -0.6831607392408517  0.6926639928477334
0.376  -0.6873845646166241  0.6882707104585929
0.377  -0.6915798962827252  0.683851451553828
0.378  -0.6957465731561656  0.6794064025019076
0.379  -0.6998844353831712  0.6749357506782614
0.38  -0.703993324345528  0.6704396844571041
0.381  -0.70807308266687  0.6659183932032213
0.382  -0.7121235542189146  0.6613720672637134
0.383  -0.7161445841276413  0.6568008979597025
0.384  -0.7201360187794137  0.6522050775779964
0.385  -0.7240977058270488  0.6475847993627177
0.386  -0.7280294941958266  0.642940257506893
0.387  -0.7319312340894464  0.6382716471440023
0.388  -0.7358027769959247  0.6335791643394941
0.389  -0.7396439756934368  0.6288630060822604
0.39  -0.7434546842561013  0.6241233702760769
0.391  -0.7472347580597078  0.6193604557310044
0.392  -0.750984053787387  0.6145744621547565
0.393  -0.7547024294352218  0.6097655901440306
0.394  -0.7583897443178019  0.6049340411758029
0.395  -0.7620458590737202  0.6000800175985885
0.396  -0.76567063567101  0.5952037226236689
0.397  -0.7692639374125232  0.5903053603162839
0.398  -0.7728256289412516  0.5853851355867877
0.399  -0.7763555762455872  0.5804432541817762
0.4  -0.7798536466645238  0.5754799226751771
0.401  -0.7833197088927996  0.5704953484593107
0.402  -0.7867536329859792  0.5654897397359157
0.403  -0.7901552903654778  0.5604633055071448
0.404  -0.7935245538235222  0.5554162555665297
