t   Re(c(t))    Im(c(t))
0.0  0.9999999999999999  0.0
0.01  0.9980182225330027  0.06261403143541758
0.02  0.9920810578159793  0.12497496432574251
0.03  0.9822129739368738  0.18683076334332757
0.04  0.9684546346510259  0.24793151495878518
0.05  0.9508627253371507  0.30803047676950973
0.06  0.9295097104188014  0.3668851130020871
0.07  0.9044835233284175  0.4242581116772886
0.08  0.875887190390289  0.47991837900924417
0.09  0.8438383902916613  0.5336420067132849
0.1  0.8084689510964065  0.585213208019347
0.11  0.7699242870319325  0.6344252183291811
0.12  0.728362777545951  0.6810811566152248
0.13  0.6839550913842363  0.7249948438361606
0.14  0.6368834586823692  0.7659915748380313
0.15  0.5873408942925867  0.803908840419442
0.16  0.5355303757802115  0.8385969964638552
0.17  0.4816639797217418  0.8699198772802206
0.18  0.4259619801176677  0.8977553505440931
0.19  0.3686519128965956  0.921995811493781
0.2  0.30996761063261963  0.9425486143087314
0.21  0.25014821172440066  0.9593364388790294
0.22  0.1894371483915573  0.9722975914642344
0.23  0.12808111793127175  0.9813862380354993
0.24  0.06632904174510214  0.9865725693955958
0.25  0.004431016692583455  0.987842897475754
0.26  -0.05736273664587639  0.985199682514682
0.27  -0.1188029242091242  0.9786614911323618
0.28  -0.17964222262629834  0.9682628856178067
0.29  -0.2396363127828477  0.9540542450544983
0.3  -0.2985448983022096  0.9361015192082942
0.31  -0.35613270454054086  0.9144859163988706
0.32  -0.4121704537883248  0.8893035268658243
0.33  -0.46643581248833765  0.8606648834231447
0.34  -0.518714306413761  0.8286944614695678
0.35000000000000003  -0.5688001999025174  0.7935301206860977
0.36  -0.6164973354134433  0.7553224910045665
0.37  -0.661619929855854  0.7142343056713366
0.38  -0.7039933243455212  0.6704396844570897
0.39  -0.7434546842560933  0.6241233702760624
0.4  -0.7798536466645145  0.575479922675163
0.41000000000000003  -0.8130529125309329  0.5247128718342672
0.42  -0.842928781206801  0.4720338368828653
0.43  -0.8693716251281544  0.41766161248441397
0.44  -0.89228630282315  0.36182122776762005
0.45  -0.9115925086426121  0.3047429817929311
0.46  -0.9272250579082194  0.24666145983226812
0.47000000000000003  -0.9391341064637664  0.18781453481019472
0.48  -0.9472853039092769  0.1284423583049904
0.49  -0.9516598800942809  0.06878634553834609
0.5  -0.9522546647439074  0.00908815879254986
0.51  -0.9490820403882426  -0.0504113063158854
0.52  -0.9421698290602745  -0.10947292730706318
0.53  -0.9315611135193644  -0.16786034970351593
0.54  -0.917313994044203  -0.22534096601050543
0.55  -0.8995012821203506  -0.28168687461837033
0.56  -0.8782101326214493  -0.3366758145410633
0.5700000000000001  -0.8535416163487816  -0.3900920720295826
0.58  -0.8256102350498978  -0.4417273552408828
0.59  -0.7945433812823682  -0.4913816333013394
0.6  -0.7604807457222678  -0.5388639362781107
0.61  -0.7235736747377721  -0.5839931127609497
0.62  -0.6839844812552575  -0.6265985419601964
0.63  -0.641885712137672  -0.6665207974428577
0.64  -0.5974593754718825  -0.7036122598567842
0.65  -0.5508961313224485  -0.737737676231878
0.66  -0.5023944496531835  -0.7687746636958761
0.67  -0.45215973924435826  -0.7966141556993381
0.68  -0.4004034515419818  -0.8211607891088234
0.6900000000000001  -0.3473421634658784  -0.8423332307976019
0.7000000000000001  -0.29319664327491746  -0.8600644426383536
0.71  -0.23819090364054807  -0.8743018840808547
0.72  -0.18255124611357995  -0.8850076517783649
0.73  -0.1265053011839032  -0.8921585560079939
0.74  -0.07028106812858062  -0.8957461339114414
0.75  -0.014105958820609391  -0.895776599861909
0.76  0.04179415037114665  -0.8922707335393629
0.77  0.09719585452051464  -0.8852637065684862
0.78  0.15187913992885402  -0.8748048488403232
0.79  0.2056282838596204  -0.8609573558986316
0.8  0.258232730438699  -0.8437979390241523
0.81  0.3094879390655027  -0.8234164198932933
0.8200000000000001  0.359196201824431  -0.7999152719210059
0.8300000000000001  0.4071674265457664  -0.7734091106199494
0.84  0.45321988233863203  -0.7440241355184173
0.85  0.49718090460534503  -0.7118975263770422
0.86  0.5388875567454496  -0.6771767966282152
0.87  0.5781872459678871  -0.6400191071316761
0.88  0.6149382908501434  -0.6005905434941667
0.89  0.6490104385127055  -0.559065360339817
0.9  0.680285329514649  -0.5156251960404918
0.91  0.7086569088205448  -0.47045826152123854
0.92  0.7340317814389036  -0.42375850684486693
0.93  0.7563295115869368  -0.3757247693512782
0.9400000000000001  0.7754828644942569  -0.32655990718123956
0.9500000000000001  0.7914379902181001  -0.27646992205075477
0.96  0.8041545491035006  -0.22566307516096737
0.97  0.8136057787823813  -0.17434900012970922
0.98  0.8197785028645781  -0.12273781681449068
0.99  0.8226730817301764  -0.07103924986313408
1.0  0.8223033060850886  -0.019461755777662945
1.01  0.8186962341893889  0.031788337790153665
1.02  0.8118919739094796  0.0825076768766087
1.03  0.8019434109795918  0.13249670664130492
1.04  0.7889158850844593  0.18156047397811256
1.05  0.7728868155922357  0.2295094040087388
1.06  0.7539452789739522  0.27616004730819077
1.07  0.7321915401421673  0.3213357948667711
1.08  0.7077365401261347  0.3648675579607615
1.09  0.6807013426730584  0.4065944102827632
1.1  0.6512165425241463  0.4463641898718422
1.11  0.6194216382595874  0.4840340585822368
1.12  0.5854643727377185  0.5194710170364238
1.1300000000000001  0.5495000442700578  0.5525523732227793
1.1400000000000001  0.5116907917751298  0.5831661631188914
1.1500000000000001  0.4722048572397995  0.6112115219476765
1.16  0.43121582888688537  0.6365990049037892
1.17  0.3889018685019846  0.6592508564212416
1.18  0.34544492641059366  0.679101227288644
1.19  0.30102994761873114  0.6960963391548654
1.2  0.25584407263641507  0.7101945962041776
1.21  0.21007583649362893  0.7213666440149478
1.22  0.16391436943303261  0.7295953758486752
1.23  0.11754860272290027  0.7348758868455336
1.24  0.07116648297792766  0.7372153768276117
1.25  0.02495419830505589  0.7366330026307283
1.26  -0.020904580493231396  0.733159681099085
1.27  -0.0662294405240383  0.7268378440832151
1.28  -0.1108439461949497  0.7177211469797943
1.29  -0.1545763344918989  0.7058741325411059
1.3  -0.19726018338084508  0.6913718518614868
1.31  -0.23873505071672435  0.674299444617251
1.32  -0.2788470811999951  0.6547516807946709
1.33  -0.31744957908735494  0.6328324662870396
1.34  -0.3544035445380085  0.6086543148760546
1.35  -0.3895781716593226  0.5823377892343
1.36  -0.4228513065049094  0.5540109136940115
1.37  -0.45410986347317905  0.5238085616222617
1.3800000000000001  -0.48325019875427344  0.4918718203238923
1.3900000000000001  -0.5101784396770314  0.45834733646073644
1.4000000000000001  -0.5348107690143126  0.4233866450287567
1.41  -0.5570736635136107  0.3871454849735894
1.42  -0.5769040861294628  0.3497831045496267
1.43  -0.5942496316437411  0.3114615595381995
1.44  -0.6090686255685409  0.2723450074367986
1.45  -0.6213301764331011  0.23259900071373432
1.46  -0.6310141817601098  0.19238978219144104
1.47  -0.6381112882369511  0.1518835855770782
1.48  -0.6426228067830565  0.11124594410151696
1.49  -0.6445605834047294  0.07064101015765596
1.5  -0.643946826912773  0.030230888746737794
1.51  -0.6408138947552415  -0.009825012552534115
1.52  -0.6352040383868929  -0.04937061448218821
1.53  -0.6271691097578048  -0.08825377537593321
1.54  -0.6167702306554672  -0.12632687643341844
1.55  -0.6040774267769111  -0.16344738076255907
1.56  -0.5891692285395419  -0.19947836409723838
1.57  -0.5721322407608495  -0.23428901524787085
1.58  -0.5530606834476268  -0.26775510449931156
1.59  -0.5320559060343907  -0.29975941833363484
1.6  -0.5092258774980557  -0.3301921590235508
1.61  -0.4846846548513062  -0.3589513078148661
1.62  -0.4585518325803625  -0.385942950592558
1.6300000000000001  -0.4309519756437921  -0.4110815651039039
1.6400000000000001  -0.40201403868764135  -0.43429026899281314
1.6500000000000001  -0.3718707741583855  -0.4555010280812102
1.6600000000000001  -0.340658132009115  -0.47465482451519203
1.67  -0.308514653696045  -0.49170178457486236
1.68  -0.2755808631520387  -0.5066012661264584
1.69  -0.24199865740156468  -0.5193219058727984
1.7  -0.20791069944762525  -0.5298416267324375
1.71  -0.1734598160160162  -0.5381476058484598
1.72  -0.1387884026861538  -0.5442362038938358
1.73  -0.10403783887104626  -0.5481128565010525
1.74  -0.06934791503223571  -0.5497919287985951
1.75  -0.034856274429184285  -0.5492965341852317
1.76  -0.0006978716071461715  -0.5466583186143189
1.77  0.03299555027637965  -0.5419172117939641
1.78  0.066095961298396  -0.5351211468343713
1.79  0.09847952392131257  -0.5263257499905724
1.8  0.13002704770480897  -0.5155940022566261
1.81  0.16062441796729007  -0.5029958746658657
1.82  0.19016299692271144  -0.48860793924060025
1.83  0.21853999596030707  -0.4725129576135488
1.84  0.24565881788040508  -0.4547994494119918
1.85  0.2714293680483501  -0.4355612425540111
1.86  0.2957683335798454  -0.41489700765413107
1.87  0.3185994298240564  -0.3929097787731133
1.8800000000000001  0.3398536135648588  -0.36970646277356867
1.8900000000000001  0.35946926251495964  -0.3453973395594928
1.9000000000000001  0.37739232083155866  -0.32009555548384905
1.9100000000000001  0.3935764105350584  -0.2939166122040833
1.92  0.4079829088633986  -0.26697785325110723
1.93  0.42058099174322616  -0.23939795055305624
1.94  0.43134764370467216  -0.21129639312128085
1.95  0.4402676347083925  -0.1827929800628589
1.96  0.44733346449113065  -0.15400732003176665
1.97  0.4525452751688495  -0.1250583391700909
1.98  0.4559107329638991  -0.09606379952171301
1.99  0.4574448800442603  -0.06713982982419266
2.0  0.457169957578179  -0.03840047050058674
2.0100000000000002  0.4551152012160265  -0.009957234582162525
2.02  0.45131661031265174  0.018081313804085085
2.0300000000000002  0.4458166922974348  0.045609961851977285
2.04  0.4386641836854434  0.07252722997357185
2.05  0.4299137493012351  0.09873573186682186
2.06  0.4196256613567518  0.12414251155939654
2.07  0.4078654600861924  0.14865935635457048
2.08  0.39470359769362606  0.17220308472789214
2.09  0.3802150674132974  0.19469580834836475
2.1  0.36447901951803036  0.21606516752451174
2.11  0.3475783661378368  0.2362445395033535
2.12  0.3295993767688171  0.2551732191783957
2.13  0.3106312663617481  0.2727965718906404
2.14  0.29076577788051405  0.28906615813379405
2.15  0.27009676121287146  0.3039398301007088
2.16  0.24871975030014049  0.3173818001321006
2.17  0.22673154032848608  0.3293626812502109
2.18  0.20422976679274307  0.3398595000788117
2.19  0.18131248820453064  0.34885568256630634
2.2  0.15807777416998994  0.3563410130401895
2.21  0.1346233005092106  0.36231156722835695
2.22  0.11104595302964267  0.36676961998529634
2.23  0.08744144149990343  0.3697235285586562
2.24  0.06390392529879167  0.3711875923237344
2.25  0.040525652137440624  0.3711818899997233
2.2600000000000002  0.01739661117081204  0.3697320954418233
2.27  -0.005395798271379822  0.36686927317731
2.2800000000000002  -0.02776708119426341  0.36262965492111787
2.29  -0.049635943641351564  0.3570543983672793
2.3000000000000003  -0.07092457064189525  0.35018932960648
2.31  -0.09155888455082238  0.342084670566958
2.32  -0.1114687830309195  0.33279475291586874
2.33  -0.13058835602928318  0.32237771989104463
2.34  -0.14885608120343527  0.310895217558751
2.35  -0.16621499735637232  0.29841207701161204
2.36  -0.18261285554372841  0.28499598903239093
2.37  -0.19800224761970295  0.27071717275384305
2.38  -0.2123407120909808  0.2556480398425231
2.39  -0.2255908172491047  0.23986285572536162
2.4  -0.23772022165121987  0.22343739936219992
2.41  -0.24870171211638295  0.2064486230454782
2.42  -0.258513219499309  0.18897431368013107
2.43  -0.2671378125951563  0.17109275696270176
2.44  -0.2745636706173418  0.1528824058390113
2.45  -0.28078403477513403  0.13442155457468785
2.46  -0.2857971395585412  0.11578801972280028
2.47  -0.2896061244145402  0.09705882921804937
2.48  -0.2922189265707024  0.0783099207678088
2.49  -0.2936481558295226  0.05961585064711561
2.5  -0.2939109522190598  0.04104951393785539
2.5100000000000002  -0.2930288274426422  0.022681877182244032
2.52  -0.29102749112223975  0.004581724347656104
2.5300000000000002  -0.28793666287653114  -0.013184583075724175
2.54  -0.2837898713155785  -0.03055333110065735
2.5500000000000003  -0.2786242410693173  -0.04746366272767901
2.56  -0.2724802689967037  -0.06385777130546459
2.57  -0.26540159074633557  -0.07968107726492962
2.58  -0.25743473885767315  -0.09488238780757645
2.59  -0.24862889360466345  -0.10941403921109355
2.6  -0.23903562779068738  -0.12323202149751927
2.61  -0.2287086467053638  -0.1362960852910308
2.62  -0.21770352444998842  -0.1485698307732555
2.63  -0.20607743782936427  -0.16002077872358236
2.64  -0.19388889899366044  -0.17062042370993957
2.65  -0.18119748799487648  -0.1803442695715888
2.66  -0.16806358639868332  -0.18917184740936044
2.67  -0.15454811306406718  -0.19708671637013153
2.68  -0.14071226317053784  -0.2040764475809665
2.69  -0.1266172515359188  -0.21013259165393838
2.7  -0.11232406122716541  -0.21525063024501018
2.71  -0.0978931984225221  -0.21942991220925376
2.72  -0.08338445443590008  -0.2226735749499411
2.73  -0.06885667576392811  -0.22498845161048023
2.74  -0.054367542962977314  -0.2263849648056401
2.75  -0.03997335910789661  -0.2268770076318893
2.7600000000000002  -0.025728848526510823  -0.22648181273585144
2.77  -0.011686966444441296  -0.22521981025477814
2.7800000000000002  0.0021012798861918375  -0.22311447547348429
2.79  0.015586998062822627  -0.22019216706835373
2.8000000000000003  0.028723564964974354  -0.2164819568307689
2.81  0.04146676835868299  -0.21201545177965417
2.82  0.05377493535218624  -0.20682660958577262
2.83  0.06560904744622383  -0.200951548239006
2.84  0.07693284198597378  -0.19442835089415217
2.85  0.08771289988476136  -0.18729686683085522
2.86  0.0979187195519488  -0.17959850945924793
2.87  0.10752277701858914  -0.171376052294833
2.88  0.11650057231425277  -0.1626734238141958
2.89  0.12483066220667485  -0.15353550208746145
2.9  0.13249467947230145  -0.14400791006413963
2.91  0.13947733892021938  -0.1341368123663154
2.92  0.14576643044414123  -0.12396871441721291
2.93  0.15135279942690236  -0.1135502647041819
2.94  0.15623031486914066  -0.10292806094332788
2.95  0.1603958256583219  -0.09214846087853751
2.96  0.16384910543590803  -0.08125739841075437
2.97  0.1665927865591201  -0.07030020571425975
2.98  0.16863228368932268  -0.05932144195563578
2.99  0.1699757075714607  -0.048364729188260576
3.0  0.17063376959814486  -0.037472595950845365
3.0100000000000002  0.1706196777778551  -0.026686329052899943
3.02  0.16994902474927032  -0.016045833983344276
3.0300000000000002  0.1686396685029213  -0.005589504331001305
3.04  0.1667116064871905  0.004645899442357613
3.0500000000000003  0.1641868437881615  0.014625361584159736
3.06  0.16108925608197236  0.02431571274466096
3.0700000000000003  0.15744444806419333  0.03368572158680072
3.08  0.15327960806338237  0.04270617616516986
3.09  0.1486233595454367  0.05134995497461201
3.1  0.14350561021173533  0.059592087615895045
3.11  0.13795739938744783  0.06740980507190032
3.12  0.13201074438687269  0.07478257963269798
3.13  0.12569848653037147  0.08169215455153198
3.14  0.11905413747251484  0.08812256355596793
3.15  0.11211172648357795  0.09406014037910333
3.16  0.1049056493066608  0.09949351851466359
3.17  0.09747051919060862  0.10441362143687585
3.18  0.08984102067472369  0.1088136435611079
3.19  0.0820517666751556  0.11268902225427246
3.2  0.07413715939498873  0.11603740123483473
3.21  0.06613125555059281  0.11885858573083802
3.22  0.05806763637592523  0.12115448979061019
3.23  0.0499792828343554  0.12292907616467222
3.24  0.04189845643438841  0.12418828919879488
3.25  0.03385658601157875  0.12493998119710698
3.2600000000000002  0.025884160804116953  0.12519383273062354
3.27  0.018010630114214686  0.12496126738053336
3.2800000000000002  0.010264309811683338  0.12425536141705132
3.29  0.002672295900160366  0.12309074892362788
3.3000000000000003  -0.004739614669542589  0.12148352288283303
3.31  -0.011946995790358407  0.1194511327443285
3.3200000000000003  -0.01892685648112416  0.11701227899706002
3.33  -0.025657697582114752  0.11418680526718901
3.34  -0.032119560820669656  0.11099558846040974
3.35  -0.03829407023750682  0.10746042746223046
3.36  -0.04416446599734901  0.10360393090261613
3.37  -0.04971563063955  0.0994494044821898
3.38  -0.05493410785538695  0.09502073834605212
3.39  -0.059808113908466735  0.09034229497831685
3.4  -0.06432754184318283  0.08543879807577043
3.41  -0.06848395865325928  0.08033522284276429
3.42  -0.07227059560804755  0.07505668813165112
3.43  -0.07568233195832641  0.06962835083389816
3.44  -0.07871567226582687  0.0640753029065828
3.45  -0.08136871762151092  0.05842247139740722
3.46  -0.08364113103672043  0.0526945218088057
3.47  -0.08553409730865202  0.046915765118267186
3.48  -0.0870502776771645  0.041110068747802916
3.49  -0.08819375960367687  0.035300771750668584
3.5  -0.08897000201484934  0.02951060445813754
3.5100000000000002  -0.08938577636385443  0.023761612803439747
3.52  -0.08944910387034768  0.018075087514052332
3.5300000000000002  -0.08916918930674793  0.012471498337477942
3.54  -0.08855635170315761  0.006970433439590647
3.5500000000000003  -0.08762195234622276  0.0015905440886858848
3.56  -0.08637832044848334  -0.0036505052873499924
3.5700000000000003  -0.0848386768643436  -0.008736081608725209
3.58  -0.08301705622674266  -0.013650622179211886
3.59  -0.08092822787498667  -0.018379668236751873
3.6  -0.07858761593907175  -0.022909893030346434
3.61  -0.07601121893924967  -0.02722912445746055
3.62  -0.0732155292516347  -0.03132636231845783
3.63  -0.07021745278139227  -0.03519179026599619
3.64  -0.06703422917456978  -0.03881678254778448
3.65  -0.06368335288800551  -0.04219390566056622
3.66  -0.060182495424066375  -0.045316915051595796
3.67  -0.05654942902330872  -0.04818074702115855
3.68  -0.052801952093613894  -0.050781505995811764
3.69  -0.04895781663901315  -0.05311644735695142
3.7  -0.04503465793537312  -0.055183956023007845
3.71  -0.04104992668345943  -0.05698352099601733
3.72  -0.03702082385271758  -0.05851570609448684
3.73  -0.03296423841150186  -0.059782117104353584
3.74  -0.028896688121535192  -0.06078536558843315
3.75  -0.024834263556181402  -0.061529029602049326
3.7600000000000002  -0.020792575483748844  -0.06201761156855054
3.77  -0.016786705738601623  -0.06225649357315436
3.7800000000000002  -0.012831161684420556  -0.06225189033703751
3.79  -0.008939834355606514  -0.062010800135826744
3.8000000000000003  -0.005125960344637956  -0.06154095392767368
3.81  -0.0014020874852517127  -0.060850762955942966
3.8200000000000003  0.002219955636311163  -0.05994926509024469
3.83  0.005729086326999204  -0.05884607016714083
3.84  0.009114990591389056  -0.0575513045883899
3.85  0.012368142112966564  -0.056075555430116664
3.86  0.015479817446077153  -0.054429814310850366
3.87  0.018442107467485026  -0.05262542126002068
3.88  0.021247925150928604  -0.050674008821290896
3.89  0.0238910097418003  -0.048587446617098635
3.9  0.026365927422070563  -0.04637778659202631
3.91  0.02866806856778778  -0.04405720914319865
3.92  0.030793641712883835  -0.041637970335861495
3.93  0.03273966434357673  -0.03913235039170167
3.94  0.03450395065736386  -0.036552603626383094
3.95  0.03608509642942788  -0.033910910001263464
3.96  0.03748246113721728  -0.031219328442384467
3.97  0.03869614750100972  -0.028489752067655544
3.98  0.03972697860441403  -0.025733865450746258
3.99  0.04057647276401619  -0.02296310403761961
